# s1_sit de 30 s. Gerado por analise.fonte_falsa; não editar à mão.
n ir vermelho
0 73960.800 71837.052
1 73963.306 71834.471
2 73970.926 71839.520
3 73987.688 71842.028
4 73998.315 71853.107
5 73991.309 71857.249
6 73985.691 71842.214
7 73965.818 71832.473
8 73918.979 71809.621
9 73864.745 71791.349
10 73816.117 71750.678
11 73765.588 71729.659
12 73731.769 71713.002
13 73715.064 71699.899
14 73701.552 71697.331
15 73690.478 71687.557
16 73683.662 71690.612
17 73683.093 71686.154
18 73684.416 71689.968
19 73694.360 71688.913
20 73707.974 71695.029
21 73703.936 71700.178
22 73711.723 71707.134
23 73723.670 71709.279
24 73723.854 71711.490
25 73726.094 71707.296
26 73724.785 71712.475
27 73728.834 71708.612
28 73727.182 71710.039
29 73726.221 71710.947
30 73740.353 71718.480
31 73743.040 71714.711
32 73749.422 71714.909
33 73759.260 71721.910
34 73761.013 71719.544
35 73768.336 71721.830
36 73766.713 71726.754
37 73772.818 71729.384
38 73771.561 71728.283
39 73782.067 71725.002
40 73781.509 71736.478
41 73771.013 71731.545
42 73778.785 71727.350
43 73767.182 71720.025
44 73772.803 71719.648
45 73777.541 71723.953
46 73777.241 71726.965
47 73790.507 71727.943
48 73803.679 71736.634
49 73806.813 71745.783
50 73807.573 71744.592
51 73821.667 71744.728
52 73824.604 71752.431
53 73833.273 71748.234
54 73841.709 71754.968
55 73844.833 71762.499
56 73848.539 71765.185
57 73860.990 71765.654
58 73871.512 71776.159
59 73876.476 71778.742
60 73875.253 71776.310
61 73865.809 71767.914
62 73877.060 71774.220
63 73888.563 71785.827
64 73893.430 71783.092
65 73894.589 71784.919
66 73902.013 71784.237
67 73899.466 71790.697
68 73911.696 71795.487
69 73906.526 71796.801
70 73917.476 71796.183
71 73920.408 71795.344
72 73922.743 71800.504
73 73937.646 71804.090
74 73941.291 71809.310
75 73941.299 71810.344
76 73942.778 71813.224
77 73948.774 71814.920
78 73959.422 71818.036
79 73959.020 71814.009
80 73962.487 71822.333
81 73962.871 71827.325
82 73966.013 71824.148
83 73970.243 71828.036
84 73977.433 71824.975
85 73981.151 71832.654
86 73985.494 71830.040
87 73978.866 71819.224
88 73931.422 71806.391
89 73872.226 71776.042
90 73815.987 71750.201
91 73769.546 71721.412
92 73733.889 71703.166
93 73706.515 71691.581
94 73703.872 71686.930
95 73691.497 71686.595
96 73698.683 71684.095
97 73685.105 71673.518
98 73685.659 71677.866
99 73687.494 71684.007
100 73703.657 71683.467
101 73707.121 71682.504
102 73709.784 71690.386
103 73722.322 71690.195
104 73732.510 71698.934
105 73735.345 71699.764
106 73732.909 71713.068
107 73734.851 71703.055
108 73743.150 71705.260
109 73748.494 71704.953
110 73744.109 71703.165
111 73752.063 71714.449
112 73761.764 71713.745
113 73766.319 71718.398
114 73771.251 71722.015
115 73771.298 71720.993
116 73767.550 71711.937
117 73771.616 71713.052
118 73775.795 71714.207
119 73774.764 71716.954
120 73773.332 71718.796
121 73778.697 71721.142
122 73778.902 71727.659
123 73776.879 71721.917
124 73779.226 71717.275
125 73785.545 71721.627
126 73791.836 71726.264
127 73796.213 71732.385
128 73799.464 71731.576
129 73805.160 71731.423
130 73811.071 71740.259
131 73820.109 71748.226
132 73822.954 71751.207
133 73836.451 71756.312
134 73841.495 71760.495
135 73845.910 71765.836
136 73854.677 71765.627
137 73854.463 71764.272
138 73858.146 71767.383
139 73864.207 71776.628
140 73868.806 71779.510
141 73876.519 71776.204
142 73873.994 71779.891
143 73876.411 71777.572
144 73882.549 71779.362
145 73895.577 71784.979
146 73894.018 71787.985
147 73906.618 71794.138
148 73910.600 71797.982
149 73914.827 71806.520
150 73914.729 71803.221
151 73922.219 71805.879
152 73922.382 71797.403
153 73918.494 71798.224
154 73931.516 71800.822
155 73941.091 71810.345
156 73950.881 71811.505
157 73949.073 71814.570
158 73955.341 71818.816
159 73959.760 71831.626
160 73969.372 71821.210
161 73969.183 71825.925
162 73964.316 71823.830
163 73962.898 71825.326
164 73945.988 71811.573
165 73910.454 71792.332
166 73860.929 71776.649
167 73805.485 71751.154
168 73763.228 71722.791
169 73728.489 71701.353
170 73706.801 71690.782
171 73686.296 71676.569
172 73667.862 71670.482
173 73666.539 71666.385
174 73661.776 71660.640
175 73665.152 71669.844
176 73672.578 71676.583
177 73682.676 71675.872
178 73687.650 71678.437
179 73693.459 71684.629
180 73699.837 71685.111
181 73704.816 71685.343
182 73701.628 71686.730
183 73703.344 71684.210
184 73711.469 71689.511
185 73716.738 71691.822
186 73724.191 71699.975
187 73718.221 71699.007
188 73730.781 71704.633
189 73744.360 71704.381
190 73736.642 71707.592
191 73751.508 71705.247
192 73757.298 71711.410
193 73759.985 71712.893
194 73764.318 71718.628
195 73773.978 71723.827
196 73774.339 71735.852
197 73776.925 71729.566
198 73774.016 71721.468
199 73773.814 71725.629
200 73775.015 71727.057
201 73790.028 71723.656
202 73779.659 71724.043
203 73776.503 71729.027
204 73792.446 71732.804
205 73794.055 71735.150
206 73801.849 71738.029
207 73813.040 71741.671
208 73816.764 71750.257
209 73823.529 71752.427
210 73828.662 71752.295
211 73840.797 71754.861
212 73849.587 71761.116
213 73857.295 71761.419
214 73851.629 71769.940
215 73862.914 71769.753
216 73860.733 71765.159
217 73872.487 71773.198
218 73871.701 71770.689
219 73881.178 71772.267
220 73883.439 71782.212
221 73893.171 71787.173
222 73892.251 71781.513
223 73888.551 71786.085
224 73898.716 71792.006
225 73908.315 71792.257
226 73910.361 71795.185
227 73911.476 71800.572
228 73918.269 71798.285
229 73927.974 71811.878
230 73935.556 71812.949
231 73944.843 71812.260
232 73945.858 71814.768
233 73938.809 71812.892
234 73939.790 71816.755
235 73948.911 71812.561
236 73953.997 71825.796
237 73964.113 71826.202
238 73969.151 71827.036
239 73978.540 71835.216
240 73985.385 71834.375
241 73992.142 71841.160
242 73990.542 71848.074
243 73980.089 71837.462
244 73974.395 71829.541
245 73949.631 71813.489
246 73899.547 71788.605
247 73835.762 71764.329
248 73786.098 71736.639
249 73741.193 71718.694
250 73719.999 71705.259
251 73698.681 71683.848
252 73676.773 71673.659
253 73672.812 71676.222
254 73673.044 71673.720
255 73677.513 71679.100
256 73677.737 71679.583
257 73690.496 71691.327
258 73694.942 71688.085
259 73693.605 71685.069
260 73701.123 71689.351
261 73698.580 71695.709
262 73704.596 71689.047
263 73708.429 71685.327
264 73704.113 71684.924
265 73709.221 71695.554
266 73720.022 71693.036
267 73728.714 71701.143
268 73728.188 71700.677
269 73730.354 71704.285
270 73740.253 71708.352
271 73747.544 71712.373
272 73748.040 71711.260
273 73748.193 71706.425
274 73751.076 71715.517
275 73761.330 71721.271
276 73763.506 71720.977
277 73770.208 71724.630
278 73767.972 71724.719
279 73768.312 71717.724
280 73775.278 71716.173
281 73769.871 71717.251
282 73772.207 71722.569
283 73774.480 71720.244
284 73780.256 71729.536
285 73789.232 71731.074
286 73797.235 71746.588
287 73805.467 71739.564
288 73811.269 71738.721
289 73815.068 71753.052
290 73822.803 71756.684
291 73830.074 71759.134
292 73833.988 71762.886
293 73844.260 71767.207
294 73846.232 71768.777
295 73851.946 71773.770
296 73868.235 71773.589
297 73863.555 71770.329
298 73869.729 71781.020
299 73876.429 71791.285
300 73887.246 71783.630
301 73892.165 71789.424
302 73895.922 71789.127
303 73887.624 71787.385
304 73889.591 71796.741
305 73907.476 71793.460
306 73906.157 71796.811
307 73905.508 71803.319
308 73916.868 71802.671
309 73927.640 71809.629
310 73931.216 71814.513
311 73934.307 71818.384
312 73942.779 71815.482
313 73943.465 71815.069
314 73950.303 71820.776
315 73954.890 71832.516
316 73959.147 71826.068
317 73956.324 71825.350
318 73966.284 71833.993
319 73979.673 71835.925
320 73979.197 71833.120
321 73986.837 71833.391
322 73992.022 71849.709
323 73991.068 71843.326
324 73993.156 71847.496
325 74001.487 71851.057
326 74006.206 71852.311
327 74009.884 71859.411
328 74011.158 71859.143
329 74000.890 71850.502
330 73963.980 71836.677
331 73906.918 71811.532
332 73844.003 71766.488
333 73783.561 71733.856
334 73746.768 71713.107
335 73723.472 71708.858
336 73712.167 71693.261
337 73697.362 71687.100
338 73689.378 71692.391
339 73694.594 71690.999
340 73689.979 71690.694
341 73693.674 71692.453
342 73698.747 71692.617
343 73705.630 71694.941
344 73708.403 71700.456
345 73723.364 71701.435
346 73728.752 71708.894
347 73728.049 71708.369
348 73738.434 71709.606
349 73728.939 71703.605
350 73727.322 71708.314
351 73730.504 71710.009
352 73745.374 71705.245
353 73760.682 71713.421
354 73754.924 71718.666
355 73759.978 71723.068
356 73775.414 71731.715
357 73785.538 71730.600
358 73787.040 71736.623
359 73786.591 71725.904
360 73790.433 71736.057
361 73789.475 71735.408
362 73783.222 71727.487
363 73784.262 71725.019
364 73785.319 71734.576
365 73786.793 71726.673
366 73802.834 71734.821
367 73797.823 71738.958
368 73790.734 71734.074
369 73801.796 71741.249
370 73811.079 71740.286
371 73813.694 71747.562
372 73820.424 71750.248
373 73831.946 71755.741
374 73842.357 71771.396
375 73845.628 71765.701
376 73854.370 71778.209
377 73859.000 71770.575
378 73870.243 71767.134
379 73874.751 71774.685
380 73879.681 71778.553
381 73882.071 71779.779
382 73890.389 71787.868
383 73889.688 71788.948
384 73892.831 71785.181
385 73900.607 71790.676
386 73910.121 71790.010
387 73906.443 71794.907
388 73910.751 71797.813
389 73922.621 71803.860
390 73929.352 71804.779
391 73936.852 71807.757
392 73938.578 71817.871
393 73937.296 71812.685
394 73936.541 71813.042
395 73941.544 71813.153
396 73945.462 71811.919
397 73951.642 71818.195
398 73955.460 71818.538
399 73964.002 71825.282
400 73965.865 71822.770
401 73967.068 71828.623
402 73975.521 71839.222
403 73974.764 71835.373
404 73984.808 71835.832
405 73984.882 71834.858
406 73988.381 71832.106
407 73990.996 71841.241
408 74004.303 71839.454
409 74015.095 71856.029
410 74024.522 71865.323
411 74024.296 71856.565
412 74021.746 71857.330
413 74002.963 71851.645
414 73973.539 71834.471
415 73928.783 71807.778
416 73864.028 71779.381
417 73819.744 71743.528
418 73776.067 71733.278
419 73743.431 71724.480
420 73718.928 71702.307
421 73710.529 71701.132
422 73707.848 71692.825
423 73696.370 71688.453
424 73695.387 71685.206
425 73702.351 71690.175
426 73714.601 71691.203
427 73733.952 71698.635
428 73730.571 71708.337
429 73746.042 71711.625
430 73746.100 71720.946
431 73751.857 71718.878
432 73747.198 71710.864
433 73747.735 71708.528
434 73749.925 71708.202
435 73758.709 71713.972
436 73761.010 71718.173
437 73775.032 71734.810
438 73778.133 71731.305
439 73792.309 71732.209
440 73796.636 71731.404
441 73791.092 71737.434
442 73794.359 71739.813
443 73804.273 71740.133
444 73801.613 71741.710
445 73799.812 71744.230
446 73801.808 71742.340
447 73805.122 71747.451
448 73810.264 71743.557
449 73805.887 71733.932
450 73804.585 71743.373
451 73800.757 71741.579
452 73815.593 71742.659
453 73818.155 71748.795
454 73816.071 71750.584
455 73824.871 71752.140
456 73843.799 71760.133
457 73850.805 71768.868
458 73856.890 71769.647
459 73864.329 71768.176
460 73868.904 71779.917
461 73874.063 71778.259
462 73882.052 71782.282
463 73879.936 71783.223
464 73883.836 71789.291
465 73891.340 71788.430
466 73900.593 71797.227
467 73905.383 71801.496
468 73906.824 71795.959
469 73911.627 71799.537
470 73912.683 71807.086
471 73932.326 71800.004
472 73938.120 71811.662
473 73941.212 71823.559
474 73933.904 71815.388
475 73938.905 71819.646
476 73960.447 71819.912
477 73959.191 71828.805
478 73963.121 71829.963
479 73960.278 71835.830
480 73966.088 71830.059
481 73978.966 71836.654
482 73983.029 71847.704
483 73987.331 71846.823
484 73986.840 71843.954
485 73996.436 71844.503
486 73994.627 71849.756
487 73998.911 71842.238
488 74011.010 71847.398
489 74009.479 71851.744
490 74017.997 71863.100
491 74017.473 71857.835
492 74019.821 71864.516
493 74028.257 71863.258
494 74009.812 71855.543
495 73985.679 71844.309
496 73942.253 71819.603
497 73877.082 71786.257
498 73817.245 71755.261
499 73775.825 71727.520
500 73744.810 71714.116
501 73732.136 71709.717
502 73711.474 71698.487
503 73703.909 71691.259
504 73694.245 71686.532
505 73692.621 71686.463
506 73695.108 71696.226
507 73707.074 71690.203
508 73714.433 71697.831
509 73721.472 71710.580
510 73721.808 71701.475
511 73730.811 71713.711
512 73734.556 71709.474
513 73736.030 71716.762
514 73738.787 71715.826
515 73738.639 71713.951
516 73744.790 71706.428
517 73759.310 71723.062
518 73755.374 71725.437
519 73765.258 71723.349
520 73774.836 71729.187
521 73778.626 71735.928
522 73776.067 71731.521
523 73788.023 71736.855
524 73787.191 71739.710
525 73790.601 71728.746
526 73789.274 71734.036
527 73797.334 71751.227
528 73796.700 71743.991
529 73801.921 71742.105
530 73806.744 71742.951
531 73800.801 71745.125
532 73803.605 71743.562
533 73815.287 71742.706
534 73819.620 71749.274
535 73816.081 71744.476
536 73821.761 71752.667
537 73830.839 71760.413
538 73841.990 71768.862
539 73847.991 71769.237
540 73862.675 71781.258
541 73861.197 71776.029
542 73867.452 71776.704
543 73878.165 71782.997
544 73881.850 71778.758
545 73880.217 71777.532
546 73886.632 71787.485
547 73898.767 71796.073
548 73906.302 71801.800
549 73908.954 71800.861
550 73910.724 71802.263
551 73910.498 71799.151
552 73921.450 71803.896
553 73918.847 71801.685
554 73923.033 71804.123
555 73930.300 71813.562
556 73935.295 71824.239
557 73939.068 71811.604
558 73941.950 71816.185
559 73945.649 71823.461
560 73947.975 71819.617
561 73962.940 71821.782
562 73968.849 71834.297
563 73976.483 71832.611
564 73970.177 71834.591
565 73979.664 71842.861
566 73979.568 71840.257
567 73980.189 71842.904
568 73991.058 71840.627
569 73991.923 71842.672
570 73998.034 71848.841
571 74004.863 71853.492
572 74007.351 71858.548
573 74020.158 71863.788
574 74017.341 71856.756
575 74017.643 71855.891
576 74014.252 71859.188
577 74023.203 71855.645
578 74007.316 71843.130
579 73956.425 71825.065
580 73906.631 71797.924
581 73848.115 71770.622
582 73790.833 71740.212
583 73754.363 71717.290
584 73730.610 71714.320
585 73717.702 71703.860
586 73704.615 71703.349
587 73702.626 71699.727
588 73696.702 71696.879
589 73703.659 71692.787
590 73704.138 71698.636
591 73714.780 71704.489
592 73724.494 71703.640
593 73727.981 71706.550
594 73729.153 71706.050
595 73723.642 71712.197
596 73724.894 71707.245
597 73733.566 71708.451
598 73736.586 71712.387
599 73732.931 71710.686
600 73751.049 71720.418
601 73759.482 71728.627
602 73765.542 71729.857
603 73760.695 71734.855
604 73774.712 71737.889
605 73776.667 71732.581
606 73779.589 71729.137
607 73788.220 71737.422
608 73796.708 71743.798
609 73803.645 71748.836
610 73802.078 71754.606
611 73802.554 71749.899
612 73789.070 71751.377
613 73803.419 71743.545
614 73794.822 71745.895
615 73800.652 71751.465
616 73796.186 71742.505
617 73805.143 71755.145
618 73809.164 71761.171
619 73812.257 71763.221
620 73823.924 71762.444
621 73823.775 71761.842
622 73838.508 71760.013
623 73848.463 71774.988
624 73846.511 71770.378
625 73857.716 71772.743
626 73862.384 71777.630
627 73865.257 71782.220
628 73866.761 71790.185
629 73876.105 71792.727
630 73888.880 71803.194
631 73891.641 71803.786
632 73889.013 71804.763
633 73891.937 71808.636
634 73891.464 71799.540
635 73899.073 71800.891
636 73914.617 71810.230
637 73910.411 71811.308
638 73920.796 71816.295
639 73923.877 71817.528
640 73918.455 71820.926
641 73927.672 71824.816
642 73937.686 71823.490
643 73940.829 71826.369
644 73949.289 71827.717
645 73941.237 71827.383
646 73934.575 71826.479
647 73952.257 71829.120
648 73957.623 71837.419
649 73954.734 71834.830
650 73958.368 71834.438
651 73964.024 71836.392
652 73969.803 71840.752
653 73977.838 71843.057
654 73978.684 71850.009
655 73982.850 71850.111
656 73992.963 71851.251
657 73991.224 71856.008
658 73993.557 71858.687
659 74003.174 71857.615
660 74006.939 71859.765
661 73998.615 71855.790
662 73971.998 71848.418
663 73928.052 71823.623
664 73866.364 71789.912
665 73813.462 71760.251
666 73774.225 71735.486
667 73735.213 71719.522
668 73716.439 71705.336
669 73701.008 71701.202
670 73695.254 71702.224
671 73695.185 71701.322
672 73686.100 71698.940
673 73688.337 71700.213
674 73697.999 71702.747
675 73697.324 71700.380
676 73709.444 71700.233
677 73708.094 71705.996
678 73724.401 71711.688
679 73727.176 71711.064
680 73722.624 71712.680
681 73733.087 71714.535
682 73729.890 71714.001
683 73736.207 71720.350
684 73735.613 71718.070
685 73727.804 71721.575
686 73736.608 71720.267
687 73755.475 71725.822
688 73761.039 71729.944
689 73760.424 71729.658
690 73770.025 71736.636
691 73767.843 71738.072
692 73773.436 71742.353
693 73777.673 71739.651
694 73776.818 71738.294
695 73772.390 71737.463
696 73783.144 71737.750
697 73777.484 71737.749
698 73772.702 71732.002
699 73784.933 71743.490
700 73784.026 71741.895
701 73790.605 71747.440
702 73788.299 71753.591
703 73798.695 71752.216
704 73801.675 71754.907
705 73802.731 71754.973
706 73809.368 71761.471
707 73821.098 71770.109
708 73828.689 71776.121
709 73831.595 71772.137
710 73840.390 71776.366
711 73835.651 71783.380
712 73847.297 71779.421
713 73853.845 71780.831
714 73852.200 71783.129
715 73860.374 71784.631
716 73861.194 71783.523
717 73861.865 71791.266
718 73867.801 71794.749
719 73873.002 71788.375
720 73874.572 71800.758
721 73887.666 71803.006
722 73887.010 71798.917
723 73891.973 71808.061
724 73893.519 71818.457
725 73897.292 71805.344
726 73899.019 71811.410
727 73902.867 71804.289
728 73912.336 71811.915
729 73916.153 71814.826
730 73915.552 71818.421
731 73924.137 71820.631
732 73928.012 71817.669
733 73926.585 71821.716
734 73929.591 71822.706
735 73942.315 71829.827
736 73944.598 71831.350
737 73937.513 71826.899
738 73951.235 71835.091
739 73960.182 71839.355
740 73960.628 71836.218
741 73970.091 71840.435
742 73975.089 71843.297
743 73976.462 71848.525
744 73976.697 71848.626
745 73948.359 71833.580
746 73895.173 71814.359
747 73841.671 71784.895
748 73792.395 71760.083
749 73745.702 71725.816
750 73711.983 71713.653
751 73687.902 71704.434
752 73676.954 71700.300
753 73666.328 71692.443
754 73667.928 71686.856
755 73668.834 71690.742
756 73666.621 71691.585
757 73674.642 71686.469
758 73680.033 71695.370
759 73683.532 71697.500
760 73695.081 71697.206
761 73709.075 71705.998
762 73707.371 71706.672
763 73707.338 71715.347
764 73716.216 71711.777
765 73713.767 71710.466
766 73704.945 71706.579
767 73721.160 71710.565
768 73729.630 71717.327
769 73736.859 71712.504
770 73740.381 71717.459
771 73752.602 71720.996
772 73757.633 71727.969
773 73753.007 71729.081
774 73756.397 71724.227
775 73752.960 71728.306
776 73744.071 71726.459
777 73754.334 71722.025
778 73755.531 71729.217
779 73752.512 71734.015
780 73754.865 71730.085
781 73761.482 71735.188
782 73758.802 71732.073
783 73761.940 71730.695
784 73765.453 71731.476
785 73763.553 71727.947
786 73762.892 71727.484
787 73770.422 71731.340
788 73781.831 71741.201
789 73787.656 71750.160
790 73797.147 71750.291
791 73802.064 71751.804
792 73797.520 71758.429
793 73812.133 71762.993
794 73810.215 71763.343
795 73820.046 71766.842
796 73820.730 71766.547
797 73827.490 71771.153
798 73834.450 71775.301
799 73841.744 71771.301
800 73843.433 71783.116
801 73841.122 71774.770
802 73847.039 71773.781
803 73861.238 71781.218
804 73857.523 71783.178
805 73862.079 71788.962
806 73866.151 71788.909
807 73869.477 71796.835
808 73868.895 71787.485
809 73875.726 71795.847
810 73882.834 71796.523
811 73882.051 71797.159
812 73885.143 71805.765
813 73900.708 71804.632
814 73889.735 71803.074
815 73890.141 71808.886
816 73904.920 71808.873
817 73899.251 71812.600
818 73909.887 71813.231
819 73918.964 71819.096
820 73916.591 71820.435
821 73921.232 71823.726
822 73925.023 71822.136
823 73924.654 71819.526
824 73900.386 71811.569
825 73868.512 71793.233
826 73807.620 71773.396
827 73758.312 71741.408
828 73721.259 71717.239
829 73698.438 71702.700
830 73673.498 71693.796
831 73654.732 71686.733
832 73657.265 71682.652
833 73650.244 71686.648
834 73652.690 71689.416
835 73648.726 71683.126
836 73657.110 71680.258
837 73658.436 71682.928
838 73664.391 71683.680
839 73671.380 71685.907
840 73680.422 71689.614
841 73676.986 71697.081
842 73688.814 71707.335
843 73692.346 71703.297
844 73695.396 71709.481
845 73695.711 71700.653
846 73696.892 71707.505
847 73703.924 71699.608
848 73713.796 71704.909
849 73713.881 71714.709
850 73722.027 71716.217
851 73722.613 71718.969
852 73726.987 71726.286
853 73733.337 71727.727
854 73734.136 71727.640
855 73732.107 71721.856
856 73731.762 71719.998
857 73728.309 71720.225
858 73732.231 71722.726
859 73738.165 71724.795
860 73743.697 71728.208
861 73740.218 71725.235
862 73741.319 71725.219
863 73744.644 71731.961
864 73751.790 71728.194
865 73749.597 71735.594
866 73749.264 71728.567
867 73760.095 71737.213
868 73775.325 71747.009
869 73781.870 71754.350
870 73785.888 71757.648
871 73797.002 71765.190
872 73799.515 71759.986
873 73805.716 71757.904
874 73803.435 71759.279
875 73807.671 71763.173
876 73805.016 71755.627
877 73814.904 71763.385
878 73818.122 71773.402
879 73825.956 71771.013
880 73833.730 71784.444
881 73833.227 71781.316
882 73828.438 71780.782
883 73838.676 71783.469
884 73843.449 71780.388
885 73846.073 71782.989
886 73843.957 71787.024
887 73851.871 71790.506
888 73854.696 71796.033
889 73858.205 71792.360
890 73864.002 71797.184
891 73865.066 71794.915
892 73871.888 71791.066
893 73877.040 71797.136
894 73876.133 71801.000
895 73885.075 71800.077
896 73883.012 71811.140
897 73889.647 71809.695
898 73899.206 71815.415
899 73896.554 71813.576
900 73898.884 71815.843
901 73915.385 71820.673
902 73909.749 71819.716
903 73914.410 71823.556
904 73904.486 71816.634
905 73890.221 71809.709
906 73851.091 71798.403
907 73786.549 71760.238
908 73737.095 71730.957
909 73704.286 71715.232
910 73662.022 71697.899
911 73642.505 71683.889
912 73630.288 71674.851
913 73617.643 71665.979
914 73615.595 71675.736
915 73616.165 71667.713
916 73609.772 71668.975
917 73614.474 71668.362
918 73618.307 71672.944
919 73626.311 71675.629
920 73639.079 71677.043
921 73633.955 71670.866
922 73646.766 71682.013
923 73641.242 71684.032
924 73647.926 71685.794
925 73649.313 71686.310
926 73643.438 71681.714
927 73638.610 71686.370
928 73647.370 71681.186
929 73665.910 71693.640
930 73671.383 71694.977
931 73668.519 71697.882
932 73681.490 71712.255
933 73690.976 71707.795
934 73692.059 71709.681
935 73695.892 71709.841
936 73695.949 71702.597
937 73695.351 71699.946
938 73701.147 71709.357
939 73698.744 71702.195
940 73700.579 71708.993
941 73704.251 71710.303
942 73705.051 71712.600
943 73706.211 71714.718
944 73710.841 71713.388
945 73712.874 71719.645
946 73712.821 71721.473
947 73716.751 71716.942
948 73724.658 71726.019
949 73731.581 71725.682
950 73743.447 71731.332
951 73753.693 71743.376
952 73756.234 71743.076
953 73757.786 71746.890
954 73763.316 71744.727
955 73766.895 71747.928
956 73759.572 71753.569
957 73769.847 71745.675
958 73772.312 71746.705
959 73782.504 71755.422
960 73789.337 71757.316
961 73799.504 71763.234
962 73798.835 71765.165
963 73797.330 71760.735
964 73809.307 71761.601
965 73805.156 71764.814
966 73807.446 71757.955
967 73802.443 71766.459
968 73808.799 71765.956
969 73822.650 71771.481
970 73827.563 71773.939
971 73830.375 71781.641
972 73834.882 71779.902
973 73836.655 71778.174
974 73841.675 71777.654
975 73844.580 71789.465
976 73847.744 71791.383
977 73854.951 71791.902
978 73851.347 71797.670
979 73854.933 71795.792
980 73863.630 71798.265
981 73870.778 71795.091
982 73884.450 71799.026
983 73887.593 71808.644
984 73878.909 71805.858
985 73891.081 71808.971
986 73897.607 71805.803
987 73896.062 71809.282
988 73901.119 71813.921
989 73905.006 71818.878
990 73903.003 71816.416
991 73887.306 71812.030
992 73846.617 71788.406
993 73795.151 71763.527
994 73744.038 71739.188
995 73696.995 71717.365
996 73661.753 71693.146
997 73634.627 71680.775
998 73623.522 71666.577
999 73611.891 71673.347
1000 73598.502 71661.620
1001 73604.025 71667.407
1002 73607.964 71661.508
1003 73613.836 71663.502
1004 73614.508 71663.102
1005 73624.560 71673.675
1006 73624.746 71670.586
1007 73620.114 71670.816
1008 73622.597 71672.457
1009 73630.879 71673.307
1010 73632.194 71675.092
1011 73643.896 71677.001
1012 73638.493 71678.119
1013 73644.562 71682.390
1014 73650.751 71678.460
1015 73658.813 71687.391
1016 73659.903 71687.932
1017 73658.142 71687.521
1018 73666.863 71686.203
1019 73674.627 71694.338
1020 73685.741 71699.116
1021 73689.660 71699.806
1022 73687.543 71708.588
1023 73691.879 71704.727
1024 73692.859 71710.068
1025 73699.076 71706.187
1026 73693.859 71699.693
1027 73693.830 71698.735
1028 73695.800 71701.901
1029 73693.893 71707.621
1030 73695.374 71709.591
1031 73708.506 71710.988
1032 73705.347 71716.289
1033 73708.295 71718.725
1034 73721.000 71716.913
1035 73723.709 71722.424
1036 73724.249 71726.234
1037 73722.777 71724.130
1038 73734.084 71730.714
1039 73749.802 71737.983
1040 73761.793 71739.043
1041 73758.727 71749.162
1042 73763.394 71743.811
1043 73772.560 71746.556
1044 73774.215 71749.191
1045 73776.179 71753.840
1046 73779.643 71746.766
1047 73783.496 71749.373
1048 73782.807 71751.377
1049 73785.039 71757.543
1050 73796.614 71763.409
1051 73802.083 71766.158
1052 73807.076 71768.962
1053 73814.004 71766.806
1054 73817.108 71774.642
1055 73819.960 71777.999
1056 73821.149 71776.474
1057 73815.949 71776.378
1058 73825.263 71773.350
1059 73832.465 71779.327
1060 73844.670 71783.248
1061 73844.345 71793.289
1062 73840.450 71793.400
1063 73858.652 71792.230
1064 73848.814 71786.755
1065 73864.470 71790.332
1066 73860.986 71790.703
1067 73863.707 71800.347
1068 73883.313 71800.504
1069 73880.390 71812.511
1070 73892.590 71812.034
1071 73892.533 71813.037
1072 73897.468 71810.724
1073 73898.081 71814.293
1074 73899.625 71822.378
1075 73910.591 71812.843
1076 73912.099 71822.305
1077 73915.800 71818.649
1078 73920.778 71830.863
1079 73934.130 71830.499
1080 73931.672 71832.276
1081 73909.687 71822.556
1082 73886.091 71812.280
1083 73824.578 71785.538
1084 73758.887 71745.540
1085 73712.098 71728.791
1086 73680.622 71702.507
1087 73645.276 71691.394
1088 73622.879 71676.098
1089 73623.307 71678.258
1090 73621.579 71679.115
1091 73618.180 71674.714
1092 73629.210 71671.276
1093 73621.555 71671.101
1094 73626.921 71674.334
1095 73637.080 71680.301
1096 73637.736 71681.237
1097 73648.716 71683.343
1098 73647.989 71684.240
1099 73652.008 71688.940
1100 73653.878 71683.866
1101 73651.896 71675.326
1102 73653.023 71685.512
1103 73652.879 71688.896
1104 73663.730 71691.578
1105 73681.049 71699.337
1106 73683.816 71700.099
1107 73678.160 71699.427
1108 73689.696 71701.590
1109 73694.932 71702.824
1110 73699.937 71705.353
1111 73707.915 71708.153
1112 73714.239 71723.721
1113 73719.357 71717.744
1114 73713.161 71721.108
1115 73713.438 71713.060
1116 73712.661 71714.575
1117 73713.256 71712.272
1118 73708.163 71707.833
1119 73710.376 71706.563
1120 73719.223 71712.991
1121 73710.578 71711.930
1122 73721.676 71724.609
1123 73729.298 71730.214
1124 73734.649 71726.437
1125 73743.040 71728.800
1126 73748.868 71734.191
1127 73750.447 71739.322
1128 73756.857 71732.912
1129 73762.492 71732.376
1130 73769.033 71739.532
1131 73779.709 71744.378
1132 73776.761 71751.385
1133 73786.877 71749.342
1134 73800.281 71751.130
1135 73798.583 71759.356
1136 73801.899 71761.567
1137 73805.919 71759.530
1138 73801.875 71755.749
1139 73802.642 71760.457
1140 73818.259 71766.786
1141 73822.242 71768.410
1142 73827.388 71775.660
1143 73836.203 71779.770
1144 73839.287 71777.578
1145 73841.870 71781.710
1146 73841.379 71785.393
1147 73846.630 71783.453
1148 73852.200 71779.053
1149 73858.511 71785.255
1150 73868.102 71796.270
1151 73871.315 71794.239
1152 73882.311 71798.652
1153 73873.746 71804.581
1154 73877.977 71797.791
1155 73882.685 71802.166
1156 73890.087 71802.685
1157 73888.911 71802.506
1158 73895.145 71805.788
1159 73900.757 71818.057
1160 73905.492 71815.469
1161 73918.645 71822.754
1162 73914.733 71822.417
1163 73919.398 71815.920
1164 73919.084 71822.600
1165 73935.340 71822.976
1166 73938.046 71826.105
1167 73940.454 71827.939
1168 73937.609 71828.932
1169 73925.521 71822.936
1170 73894.636 71807.161
1171 73842.727 71781.266
1172 73778.062 71751.812
1173 73735.500 71723.786
1174 73687.374 71704.276
1175 73662.157 71694.752
1176 73642.069 71680.022
1177 73630.426 71670.438
1178 73628.621 71678.653
1179 73630.416 71669.298
1180 73633.749 71674.642
1181 73640.218 71681.904
1182 73642.849 71670.103
1183 73647.533 71682.183
1184 73657.367 71689.348
1185 73659.190 71683.350
1186 73670.694 71691.172
1187 73676.229 71694.668
1188 73681.121 71693.813
1189 73682.499 71692.744
1190 73680.731 71693.671
1191 73685.933 71704.966
1192 73694.060 71701.193
1193 73698.539 71704.752
1194 73712.567 71702.992
1195 73720.937 71717.029
1196 73728.764 71713.473
1197 73729.135 71718.523
1198 73728.111 71717.826
1199 73727.972 71718.487
1200 73730.740 71720.886
1201 73739.936 71725.508
1202 73737.333 71719.413
1203 73737.522 71716.557
1204 73738.138 71725.634
1205 73737.387 71721.691
1206 73744.955 71726.164
1207 73734.669 71730.668
1208 73741.223 71725.994
1209 73738.484 71727.209
1210 73762.960 71725.236
1211 73766.682 71729.649
1212 73765.599 71742.343
1213 73773.242 71744.753
1214 73787.354 71747.550
1215 73789.550 71749.005
1216 73789.958 71756.408
1217 73803.311 71759.148
1218 73791.213 71755.714
1219 73805.595 71756.870
1220 73809.728 71766.471
1221 73818.227 71765.975
1222 73832.716 71772.543
1223 73825.029 71775.829
1224 73838.154 71779.055
1225 73835.673 71781.789
1226 73840.923 71775.367
1227 73845.846 71779.452
1228 73838.083 71777.170
1229 73834.078 71777.945
1230 73854.684 71781.652
1231 73870.053 71789.985
1232 73868.324 71791.340
1233 73873.888 71797.288
1234 73872.756 71800.356
1235 73882.033 71803.771
1236 73882.715 71804.678
1237 73887.859 71799.400
1238 73890.051 71800.728
1239 73899.042 71805.038
1240 73904.254 71809.521
1241 73903.757 71813.782
1242 73916.784 71816.324
1243 73917.092 71825.421
1244 73918.102 71817.631
1245 73919.471 71826.232
1246 73924.789 71828.343
1247 73938.426 71825.506
1248 73938.387 71831.709
1249 73938.328 71834.369
1250 73952.978 71836.159
1251 73950.602 71839.676
1252 73940.789 71838.112
1253 73905.908 71811.571
1254 73848.758 71783.822
1255 73787.418 71751.476
1256 73736.184 71729.104
1257 73696.095 71709.261
1258 73661.507 71692.615
1259 73648.160 71678.887
1260 73636.694 71675.054
1261 73632.974 71672.753
1262 73629.204 71671.326
1263 73641.514 71675.615
1264 73640.509 71684.275
1265 73644.100 71686.217
1266 73657.519 71686.197
1267 73662.506 71687.707
1268 73662.279 71694.990
1269 73667.380 71698.764
1270 73671.860 71691.160
1271 73683.811 71702.691
1272 73679.851 71692.141
1273 73678.580 71693.516
1274 73685.185 71697.327
1275 73687.479 71700.590
1276 73698.752 71707.400
1277 73705.722 71716.015
1278 73717.000 71717.327
1279 73726.720 71718.339
1280 73728.165 71724.620
1281 73727.289 71739.097
1282 73742.867 71725.071
1283 73734.154 71730.384
1284 73742.926 71725.479
1285 73741.294 71725.537
1286 73741.620 71724.510
1287 73748.533 71729.749
1288 73743.224 71731.840
1289 73742.429 71730.302
1290 73744.294 71728.401
1291 73748.123 71727.695
1292 73739.223 71724.842
1293 73751.762 71732.644
1294 73760.620 71731.385
1295 73772.780 71739.953
1296 73780.088 71742.426
1297 73791.264 71747.954
1298 73794.475 71754.017
1299 73789.344 71751.390
1300 73804.327 71751.670
1301 73809.797 71766.493
1302 73825.969 71765.357
1303 73829.989 71769.941
1304 73832.982 71776.031
1305 73837.980 71778.861
1306 73843.331 71775.636
1307 73854.180 71783.266
1308 73853.163 71786.515
1309 73858.699 71783.148
1310 73858.565 71794.508
1311 73868.570 71786.056
1312 73874.819 71802.459
1313 73883.973 71797.949
1314 73885.255 71805.834
1315 73891.535 71801.418
1316 73894.916 71805.579
1317 73897.796 71812.046
1318 73901.856 71808.050
1319 73903.628 71812.908
1320 73908.892 71812.838
1321 73914.344 71819.211
1322 73919.240 71819.249
1323 73930.534 71834.229
1324 73931.877 71830.258
1325 73937.181 71833.984
1326 73945.307 71846.475
1327 73940.524 71836.081
1328 73944.624 71840.656
1329 73947.418 71835.344
1330 73950.349 71835.991
1331 73962.245 71838.939
1332 73973.651 71856.551
1333 73976.512 71856.746
1334 73988.466 71859.102
1335 73994.341 71860.793
1336 73988.227 71857.188
1337 73968.321 71849.676
1338 73944.433 71832.589
1339 73886.377 71804.566
1340 73821.404 71767.902
1341 73760.983 71750.158
1342 73725.268 71737.533
1343 73695.901 71713.294
1344 73666.797 71695.391
1345 73651.325 71693.384
1346 73647.767 71688.491
1347 73649.933 71682.493
1348 73649.194 71681.075
1349 73645.856 71691.843
1350 73653.008 71687.394
1351 73662.585 71692.530
1352 73674.277 71694.853
1353 73677.562 71701.086
1354 73685.378 71703.188
1355 73683.916 71705.845
1356 73689.934 71701.675
1357 73691.209 71708.230
1358 73687.399 71714.226
1359 73693.196 71711.457
1360 73690.387 71705.745
1361 73704.467 71715.910
1362 73713.249 71727.070
1363 73715.562 71721.255
1364 73736.538 71722.405
1365 73732.777 71733.862
1366 73731.328 71735.524
1367 73747.585 71736.517
1368 73746.408 71744.760
1369 73743.999 71745.842
1370 73753.855 71736.777
1371 73754.381 71741.991
1372 73748.426 71739.686
1373 73753.915 71741.205
1374 73757.457 71744.317
1375 73754.772 71742.324
1376 73755.820 71738.418
1377 73759.371 71747.213
1378 73766.738 71753.489
1379 73775.781 71753.411
1380 73776.613 71747.885
1381 73781.004 71764.753
1382 73786.684 71766.044
1383 73802.067 71763.421
1384 73802.296 71770.448
1385 73813.355 71772.100
1386 73819.224 71774.566
1387 73830.100 71795.105
1388 73831.527 71788.644
1389 73840.253 71787.902
1390 73848.349 71793.822
1391 73846.411 71789.518
1392 73857.652 71791.854
1393 73857.955 71793.756
1394 73858.007 71794.855
1395 73865.325 71802.848
1396 73875.985 71804.403
1397 73882.917 71808.647
1398 73875.279 71810.125
1399 73871.928 71806.466
1400 73878.426 71808.283
1401 73890.933 71811.847
1402 73897.988 71821.418
1403 73903.214 71818.905
1404 73910.848 71820.365
1405 73910.041 71821.029
1406 73912.705 71822.836
1407 73924.623 71827.912
1408 73928.041 71827.271
1409 73925.614 71834.821
1410 73930.056 71839.891
1411 73934.426 71839.034
1412 73946.283 71843.735
1413 73950.880 71846.284
1414 73956.854 71853.197
1415 73966.577 71854.607
1416 73969.699 71855.813
1417 73970.272 71854.840
1418 73971.884 71859.085
1419 73974.813 71858.706
1420 73968.170 71851.351
1421 73948.911 71835.602
1422 73905.549 71822.371
1423 73850.548 71793.240
1424 73788.148 71764.154
1425 73748.487 71742.213
1426 73709.142 71724.554
1427 73683.747 71712.063
1428 73675.708 71698.011
1429 73663.619 71693.853
1430 73654.211 71696.953
1431 73659.553 71689.285
1432 73670.594 71704.626
1433 73664.357 71704.711
1434 73674.160 71706.086
1435 73682.568 71705.132
1436 73684.797 71710.407
1437 73687.216 71714.412
1438 73693.157 71711.301
1439 73688.731 71711.133
1440 73697.885 71709.386
1441 73696.910 71708.174
1442 73706.723 71715.991
1443 73712.461 71718.171
1444 73718.496 71722.920
1445 73723.971 71729.912
1446 73728.864 71728.535
1447 73731.912 71730.914
1448 73745.830 71738.798
1449 73739.401 71731.417
1450 73740.442 71740.662
1451 73746.149 71736.603
1452 73750.447 71740.148
1453 73755.030 71736.104
1454 73747.616 71739.887
1455 73749.040 71738.971
1456 73754.459 71731.050
1457 73754.812 71735.055
1458 73753.515 71741.753
1459 73755.597 71743.186
1460 73763.822 71742.710
1461 73762.603 71749.840
1462 73771.786 71753.022
1463 73780.043 71760.105
1464 73782.907 71755.895
1465 73784.478 71754.278
1466 73791.467 71767.141
1467 73792.745 71761.624
1468 73800.423 71762.034
1469 73815.478 71762.043
1470 73814.108 71771.238
1471 73823.932 71774.576
1472 73833.227 71778.765
1473 73828.599 71776.007
1474 73832.942 71778.424
1475 73830.278 71776.938
1476 73840.652 71783.892
1477 73846.622 71782.281
1478 73854.017 71787.352
1479 73855.053 71793.833
1480 73856.080 71793.878
1481 73860.497 71798.459
1482 73876.485 71799.947
1483 73876.727 71801.626
1484 73875.777 71802.741
1485 73895.138 71797.861
1486 73890.951 71806.865
1487 73890.809 71813.082
1488 73900.465 71825.190
1489 73908.603 71816.437
1490 73904.399 71821.912
1491 73915.627 71823.205
1492 73915.670 71828.374
1493 73920.754 71829.182
1494 73922.588 71828.084
1495 73928.897 71834.785
1496 73942.257 71834.828
1497 73944.798 71842.522
1498 73955.193 71841.034
1499 73957.405 71846.918
1500 73937.302 71833.509
1501 73916.854 71825.155
1502 73869.678 71801.145
1503 73811.521 71766.819
1504 73761.039 71742.697
1505 73726.703 71733.219
1506 73685.484 71714.127
1507 73670.696 71699.237
1508 73653.754 71693.767
1509 73646.254 71688.581
1510 73640.393 71685.556
1511 73635.048 71685.631
1512 73646.883 71680.754
1513 73655.330 71685.836
1514 73658.598 71695.823
1515 73668.636 71697.494
1516 73672.876 71696.399
1517 73680.435 71702.293
1518 73675.561 71706.075
1519 73682.485 71705.380
1520 73683.516 71704.215
1521 73687.155 71705.217
1522 73699.955 71712.176
1523 73704.314 71709.356
1524 73716.747 71717.350
1525 73716.084 71717.430
1526 73720.756 71722.331
1527 73725.625 71731.261
1528 73730.729 71730.447
1529 73731.406 71732.537
1530 73730.575 71723.630
1531 73729.494 71728.112
1532 73735.445 71731.473
1533 73738.079 71741.756
1534 73737.301 71738.638
1535 73737.217 71741.105
1536 73740.298 71737.656
1537 73739.894 71729.131
1538 73737.739 71735.905
1539 73733.726 71736.006
1540 73734.180 71741.144
1541 73737.299 71741.748
1542 73745.532 71750.045
1543 73758.077 71750.674
1544 73758.427 71748.632
1545 73778.466 71750.460
1546 73785.620 71762.713
1547 73786.666 71768.707
1548 73790.020 71763.124
1549 73791.392 71766.256
1550 73798.460 71761.199
1551 73800.237 71770.800
1552 73803.434 71774.280
1553 73809.363 71771.029
1554 73813.564 71780.698
1555 73811.622 71777.114
1556 73811.498 71785.330
1557 73818.887 71776.451
1558 73820.154 71779.702
1559 73830.535 71780.018
1560 73826.168 71781.476
1561 73829.218 71794.969
1562 73836.781 71792.170
1563 73838.071 71791.664
1564 73846.915 71788.306
1565 73849.959 71796.645
1566 73849.453 71798.268
1567 73853.050 71798.770
1568 73862.737 71799.620
1569 73865.337 71809.711
1570 73866.938 71809.339
1571 73869.953 71805.735
1572 73877.631 71818.325
1573 73881.028 71810.619
1574 73883.373 71811.814
1575 73887.622 71814.542
1576 73879.273 71810.991
1577 73856.816 71802.937
1578 73815.212 71785.515
1579 73764.843 71760.274
1580 73717.763 71731.330
1581 73671.309 71706.191
1582 73640.836 71691.064
1583 73623.864 71681.609
1584 73609.586 71678.110
1585 73600.648 71675.958
1586 73601.180 71677.117
1587 73610.433 71678.609
1588 73611.642 71679.795
1589 73609.429 71679.641
1590 73607.980 71673.489
1591 73617.879 71675.582
1592 73611.863 71682.600
1593 73616.902 71678.661
1594 73630.240 71685.570
1595 73632.392 71686.336
1596 73636.902 71693.193
1597 73632.749 71696.229
1598 73643.080 71689.456
1599 73644.756 71686.812
1600 73641.739 71691.289
1601 73648.907 71695.232
1602 73651.521 71695.345
1603 73663.408 71692.180
1604 73673.831 71707.080
1605 73678.459 71709.506
1606 73686.341 71707.351
1607 73696.846 71717.830
1608 73683.370 71705.896
1609 73679.797 71712.621
1610 73682.046 71703.991
1611 73679.132 71710.199
1612 73679.990 71706.761
1613 73692.177 71708.169
1614 73692.689 71715.680
1615 73696.652 71720.503
1616 73699.461 71725.235
1617 73698.324 71722.122
1618 73704.071 71722.358
1619 73712.712 71727.380
1620 73716.806 71724.593
1621 73712.816 71730.156
1622 73729.741 71733.574
1623 73742.845 71739.027
1624 73735.787 71744.184
1625 73742.106 71746.743
1626 73750.737 71748.844
1627 73752.502 71752.111
1628 73756.905 71759.621
1629 73768.466 71748.855
1630 73767.617 71758.983
1631 73769.265 71755.737
1632 73768.169 71760.622
1633 73778.623 71761.977
1634 73778.016 71766.242
1635 73786.303 71760.697
1636 73786.097 71756.887
1637 73787.782 71772.544
1638 73790.168 71775.841
1639 73790.827 71779.250
1640 73797.802 71772.562
1641 73802.184 71778.896
1642 73806.561 71784.262
1643 73816.182 71782.473
1644 73819.258 71788.867
1645 73823.119 71789.035
1646 73823.209 71788.840
1647 73821.807 71789.241
1648 73832.800 71790.589
1649 73830.580 71793.671
1650 73841.481 71789.036
1651 73843.973 71800.584
1652 73854.572 71801.675
1653 73857.756 71805.623
1654 73858.610 71802.165
1655 73859.015 71804.879
1656 73865.171 71806.375
1657 73836.390 71796.040
1658 73797.974 71779.006
1659 73746.024 71746.840
1660 73694.462 71728.488
1661 73647.283 71701.394
1662 73621.324 71687.516
1663 73597.447 71668.903
1664 73579.638 71665.049
1665 73572.738 71660.276
1666 73570.197 71658.156
1667 73579.956 71661.947
1668 73581.752 71666.596
1669 73584.347 71673.465
1670 73580.648 71668.225
1671 73584.720 71663.364
1672 73592.875 71663.019
1673 73589.272 71663.799
1674 73601.131 71668.876
1675 73602.944 71676.023
1676 73606.625 71672.114
1677 73609.359 71671.836
1678 73599.308 71672.562
1679 73611.569 71675.439
1680 73612.796 71676.355
1681 73620.086 71681.149
1682 73621.078 71674.734
1683 73635.203 71684.031
1684 73644.300 71695.552
1685 73645.041 71700.350
1686 73648.901 71701.247
1687 73654.381 71700.790
1688 73656.081 71704.426
1689 73661.653 71701.372
1690 73659.028 71694.783
1691 73655.928 71699.529
1692 73657.860 71694.502
1693 73662.518 71701.586
1694 73668.632 71708.665
1695 73670.764 71712.066
1696 73676.610 71701.600
1697 73683.401 71710.195
1698 73678.690 71713.671
1699 73688.257 71710.376
1700 73688.404 71714.705
1701 73686.782 71711.728
1702 73683.727 71718.197
1703 73701.079 71714.862
1704 73715.613 71726.130
1705 73720.110 71733.498
1706 73722.241 71729.864
1707 73722.639 71732.814
1708 73731.591 71735.526
1709 73733.544 71734.866
1710 73738.496 71737.745
1711 73733.634 71745.480
1712 73741.284 71740.640
1713 73757.330 71741.174
1714 73756.666 71747.880
1715 73760.423 71751.363
1716 73758.624 71755.609
1717 73763.379 71754.131
1718 73767.159 71758.685
1719 73776.621 71760.589
1720 73775.615 71762.714
1721 73775.642 71766.558
1722 73774.960 71765.277
1723 73788.224 71772.907
1724 73795.414 71774.959
1725 73799.521 71776.176
1726 73809.101 71774.804
1727 73812.682 71786.684
1728 73812.998 71779.988
1729 73819.781 71776.988
1730 73808.999 71778.874
1731 73808.643 71780.517
1732 73820.896 71783.630
1733 73830.484 71781.969
1734 73834.840 71794.368
1735 73841.446 71797.683
1736 73851.008 71807.647
1737 73853.461 71804.753
1738 73851.622 71800.037
1739 73852.810 71798.123
1740 73833.226 71796.026
1741 73798.407 71770.801
1742 73749.990 71754.995
1743 73698.215 71726.836
1744 73661.034 71709.393
1745 73621.550 71694.019
1746 73596.647 71677.781
1747 73567.459 71667.171
1748 73564.673 71658.782
1749 73564.910 71657.410
1750 73560.961 71657.026
1751 73562.986 71657.206
1752 73564.875 71664.651
1753 73575.644 71658.112
1754 73585.176 71670.383
1755 73594.261 71672.809
1756 73594.015 71675.970
1757 73598.853 71678.580
1758 73608.472 71669.684
1759 73604.388 71680.384
1760 73611.785 71677.748
1761 73609.843 71675.956
1762 73611.916 71676.053
1763 73615.338 71688.362
1764 73624.942 71684.544
1765 73630.929 71677.391
1766 73630.467 71693.098
1767 73638.711 71691.052
1768 73653.802 71696.622
1769 73658.136 71704.766
1770 73663.830 71705.500
1771 73656.260 71708.896
1772 73657.178 71701.488
1773 73658.438 71700.189
1774 73667.470 71703.126
1775 73664.610 71703.027
1776 73666.657 71698.356
1777 73666.860 71702.781
1778 73675.752 71722.575
1779 73671.349 71712.563
1780 73672.486 71709.336
1781 73678.801 71709.531
1782 73681.808 71717.061
1783 73682.638 71715.350
1784 73693.332 71720.900
1785 73705.601 71733.146
1786 73703.657 71725.974
1787 73714.740 71732.088
1788 73718.806 71733.518
1789 73728.516 71733.078
1790 73734.379 71738.572
1791 73725.381 71734.934
1792 73724.461 71737.088
1793 73733.173 71734.772
1794 73742.496 71738.362
1795 73744.265 71748.256
1796 73754.368 71748.161
1797 73760.463 71753.350
1798 73765.859 71748.326
1799 73768.731 71762.233
1800 73773.497 71766.193
1801 73777.788 71747.457
1802 73773.631 71751.263
1803 73780.237 71756.034
1804 73786.899 71764.585
1805 73789.177 71770.915
1806 73792.430 71773.883
1807 73793.186 71776.472
1808 73804.760 71774.002
1809 73810.806 71777.120
1810 73811.090 71783.046
1811 73813.541 71779.400
1812 73819.220 71781.397
1813 73819.223 71787.126
1814 73830.447 71780.619
1815 73829.786 71797.702
1816 73833.908 71792.715
1817 73846.053 71799.546
1818 73848.827 71803.917
1819 73862.564 71805.082
1820 73862.461 71809.307
1821 73868.816 71815.289
1822 73870.314 71809.210
1823 73871.665 71804.393
1824 73862.907 71807.564
1825 73839.457 71792.535
1826 73793.635 71775.102
1827 73741.395 71747.630
1828 73689.048 71723.058
1829 73645.419 71691.382
1830 73608.822 71680.308
1831 73588.706 71666.949
1832 73577.713 71654.250
1833 73576.609 71660.846
1834 73584.372 71660.442
1835 73582.403 71662.261
1836 73578.825 71663.052
1837 73581.185 71660.476
1838 73592.744 71665.178
1839 73596.548 71670.525
1840 73603.886 71667.158
1841 73607.036 71667.183
1842 73610.125 71675.339
1843 73611.873 71675.657
1844 73615.759 71676.518
1845 73624.569 71675.644
1846 73629.712 71677.957
1847 73639.167 71681.804
1848 73643.965 71689.945
1849 73647.542 71688.826
1850 73655.555 71693.100
1851 73664.281 71695.001
1852 73667.028 71700.525
1853 73669.352 71702.442
1854 73671.113 71705.811
1855 73667.600 71703.212
1856 73680.107 71706.346
1857 73680.160 71704.094
1858 73680.098 71709.519
1859 73674.785 71704.261
1860 73675.446 71706.757
1861 73676.187 71707.976
1862 73675.657 71702.878
1863 73682.408 71701.554
1864 73688.541 71706.480
1865 73687.241 71711.384
1866 73690.126 71710.759
1867 73692.235 71709.419
1868 73701.904 71716.292
1869 73712.335 71717.015
1870 73719.353 71727.932
1871 73722.370 71725.535
1872 73727.584 71726.962
1873 73741.941 71737.741
1874 73746.275 71744.115
1875 73743.551 71735.791
1876 73746.003 71744.046
1877 73750.518 71738.370
1878 73759.038 71746.287
1879 73765.523 71752.707
1880 73773.541 71755.848
1881 73775.546 71757.367
1882 73773.734 71750.673
1883 73776.063 71755.034
1884 73774.370 71763.134
1885 73780.598 71761.211
1886 73796.219 71764.329
1887 73799.378 71769.558
1888 73802.398 71773.380
1889 73807.599 71784.680
1890 73803.486 71773.175
1891 73813.110 71777.898
1892 73806.188 71772.374
1893 73811.460 71776.644
1894 73823.803 71775.210
1895 73827.826 71780.294
1896 73832.813 71787.246
1897 73830.250 71789.801
1898 73837.770 71798.091
1899 73846.316 71794.813
1900 73853.695 71799.355
1901 73845.386 71797.899
1902 73836.847 71790.836
1903 73814.666 71780.436
1904 73767.889 71755.723
1905 73727.491 71732.223
1906 73677.767 71708.906
1907 73639.385 71688.393
1908 73608.887 71669.803
1909 73577.233 71657.496
1910 73567.779 71653.439
1911 73560.948 71641.624
1912 73561.267 71645.838
1913 73565.017 71649.408
1914 73564.857 71647.820
1915 73580.949 71657.023
1916 73581.057 71662.504
1917 73589.172 71659.002
1918 73590.443 71664.281
1919 73599.047 71663.895
1920 73598.520 71666.385
1921 73611.344 71675.148
1922 73614.926 71675.492
1923 73622.267 71676.924
1924 73631.976 71680.559
1925 73634.612 71684.638
1926 73640.573 71679.238
1927 73641.422 71680.515
1928 73647.517 71692.553
1929 73642.650 71689.643
1930 73656.233 71694.818
1931 73661.764 71693.363
1932 73662.459 71693.923
1933 73666.934 71701.712
1934 73667.264 71698.527
1935 73666.987 71700.681
1936 73673.299 71695.662
1937 73672.416 71699.751
1938 73669.985 71696.740
1939 73668.558 71696.607
1940 73677.055 71697.343
1941 73680.965 71705.261
1942 73680.748 71704.402
1943 73677.248 71704.987
1944 73689.367 71712.406
1945 73696.212 71715.784
1946 73702.007 71719.011
1947 73714.655 71716.735
1948 73719.581 71726.712
1949 73720.539 71731.758
1950 73734.339 71736.387
1951 73742.378 71740.544
1952 73742.072 71745.078
1953 73741.180 71739.013
1954 73748.276 71735.954
1955 73752.740 71740.262
1956 73761.665 71744.285
1957 73759.789 71748.169
1958 73764.742 71755.367
1959 73767.893 71756.002
1960 73784.785 71755.510
1961 73787.415 71764.793
1962 73781.351 71760.998
1963 73778.173 71764.276
1964 73783.594 71769.143
1965 73798.956 71767.240
1966 73802.016 71773.192
1967 73815.986 71777.514
1968 73812.237 71775.797
1969 73821.946 71781.999
1970 73821.397 71782.278
1971 73825.620 71781.085
1972 73824.986 71787.882
1973 73831.061 71779.862
1974 73827.267 71785.692
1975 73842.664 71789.771
1976 73857.148 71798.679
1977 73852.973 71805.436
1978 73861.556 71803.618
1979 73874.719 71809.494
1980 73864.324 71807.728
1981 73846.252 71791.559
1982 73801.459 71763.959
1983 73746.329 71743.342
1984 73683.211 71714.444
1985 73649.707 71690.925
1986 73606.395 71676.876
1987 73584.989 71665.481
1988 73571.745 71662.223
1989 73567.362 71653.584
1990 73558.913 71650.378
1991 73557.798 71647.390
1992 73558.656 71648.356
1993 73564.970 71647.199
1994 73583.298 71656.174
1995 73580.430 71665.851
1996 73594.242 71661.923
1997 73595.204 71662.015
1998 73600.104 71665.296
1999 73601.050 71663.040
2000 73600.561 71663.376
2001 73598.470 71669.588
2002 73609.909 71667.921
2003 73606.689 71665.292
2004 73608.011 71675.495
2005 73620.531 71673.099
2006 73627.155 71678.677
2007 73637.749 71681.557
2008 73640.752 71679.041
2009 73645.587 71683.584
2010 73645.860 71693.494
2011 73657.287 71693.692
2012 73659.105 71689.248
2013 73659.777 71693.898
2014 73661.890 71697.029
2015 73668.875 71702.392
2016 73668.207 71694.409
2017 73656.404 71696.781
2018 73663.932 71694.795
2019 73670.992 71694.717
2020 73663.811 71696.896
2021 73674.609 71696.967
2022 73676.185 71705.293
2023 73675.977 71699.983
2024 73684.737 71705.468
2025 73688.930 71712.566
2026 73699.810 71715.865
2027 73706.115 71715.955
2028 73714.677 71721.178
2029 73712.721 71720.200
2030 73727.414 71719.466
2031 73734.596 71733.691
2032 73737.602 71736.660
2033 73743.938 71733.267
2034 73748.938 71732.316
2035 73754.263 71739.635
2036 73756.896 71741.765
2037 73755.947 71742.686
2038 73767.627 71745.588
2039 73769.938 71748.680
2040 73772.606 71756.594
2041 73779.406 71752.040
2042 73782.277 71752.118
2043 73782.878 71753.310
2044 73785.336 71757.811
2045 73793.995 71759.908
2046 73797.177 71760.817
2047 73797.175 71761.064
2048 73804.125 71761.983
2049 73805.974 71774.176
2050 73820.600 71774.383
2051 73825.068 71784.142
2052 73826.945 71785.848
2053 73825.708 71781.396
2054 73829.806 71779.858
2055 73842.153 71786.567
2056 73846.376 71797.701
2057 73852.577 71794.954
2058 73856.866 71790.544
2059 73863.749 71796.475
2060 73855.564 71798.953
2061 73839.417 71788.925
2062 73804.893 71766.237
2063 73746.694 71732.783
2064 73684.309 71711.204
2065 73639.585 71681.201
2066 73610.680 71668.561
2067 73588.161 71657.523
2068 73573.266 71653.002
2069 73569.510 71655.797
2070 73567.008 71648.027
2071 73555.970 71639.295
2072 73557.238 71639.439
2073 73560.484 71640.217
2074 73568.120 71644.176
2075 73580.771 71654.595
2076 73586.512 71650.655
2077 73585.976 71658.875
2078 73590.138 71661.279
2079 73595.241 71655.999
2080 73593.499 71658.570
2081 73591.646 71655.139
2082 73601.955 71657.645
2083 73599.926 71663.225
2084 73602.125 71661.050
2085 73618.916 71670.867
2086 73629.774 71673.534
2087 73637.666 71686.577
2088 73643.903 71684.351
2089 73649.712 71686.495
2090 73655.634 71694.365
2091 73664.963 71697.461
2092 73656.706 71694.536
2093 73648.136 71693.122
2094 73657.170 71695.604
2095 73661.899 71695.822
2096 73662.738 71700.809
2097 73660.936 71701.742
2098 73661.900 71705.543
2099 73668.899 71702.241
2100 73678.279 71695.560
2101 73681.293 71702.089
2102 73686.359 71714.187
2103 73690.762 71711.908
2104 73693.985 71715.096
2105 73701.450 71720.717
2106 73711.436 71724.967
2107 73715.924 71728.054
2108 73721.288 71730.463
2109 73718.742 71729.115
2110 73734.958 71737.173
2111 73738.266 71740.640
2112 73747.120 71751.457
2113 73746.590 71750.010
2114 73748.522 71743.751
2115 73753.749 71748.039
2116 73760.668 71749.735
2117 73762.095 71751.339
2118 73766.393 71748.560
2119 73776.167 71760.520
2120 73789.633 71765.753
2121 73791.556 71770.359
2122 73801.827 71773.336
2123 73794.150 71774.863
2124 73794.677 71772.642
2125 73795.379 71766.242
2126 73804.269 71778.267
2127 73818.957 71783.757
2128 73823.059 71792.839
2129 73826.731 71794.095
2130 73825.665 71797.242
2131 73835.986 71795.203
2132 73835.979 71789.646
2133 73842.027 71795.488
2134 73843.686 71800.657
2135 73844.403 71792.163
2136 73849.753 71797.320
2137 73855.529 71805.111
2138 73860.206 71815.234
2139 73862.592 71821.796
2140 73882.438 71820.852
2141 73884.187 71820.939
2142 73883.742 71815.279
2143 73865.020 71807.190
2144 73834.191 71790.971
2145 73779.974 71761.625
2146 73719.021 71735.127
2147 73671.926 71713.750
2148 73634.420 71685.450
2149 73607.681 71674.592
2150 73588.298 71663.789
2151 73588.274 71666.764
2152 73581.862 71655.304
2153 73569.960 71645.207
2154 73572.619 71650.863
2155 73572.990 71658.916
2156 73592.473 71662.848
2157 73601.132 71667.026
2158 73602.666 71671.824
2159 73611.117 71675.367
2160 73613.426 71669.282
2161 73614.323 71674.145
2162 73624.235 71674.361
2163 73616.934 71671.365
2164 73628.636 71676.203
2165 73635.864 71678.830
2166 73631.199 71674.945
2167 73645.441 71686.973
2168 73653.782 71689.629
2169 73662.800 71688.538
2170 73658.289 71695.579
2171 73657.508 71697.548
2172 73671.899 71697.196
2173 73673.839 71701.136
2174 73675.389 71697.275
2175 73675.392 71704.879
2176 73672.349 71704.716
2177 73678.485 71701.487
2178 73678.037 71704.160
2179 73672.183 71703.317
2180 73671.640 71695.907
2181 73676.047 71705.009
2182 73681.830 71706.935
2183 73679.137 71697.362
2184 73683.420 71703.146
2185 73684.052 71710.393
2186 73696.122 71713.496
2187 73708.710 71713.798
2188 73718.435 71720.422
2189 73719.766 71728.608
2190 73724.549 71720.032
2191 73727.412 71732.608
2192 73741.704 71732.615
2193 73744.685 71728.247
2194 73740.545 71738.689
2195 73747.119 71740.637
2196 73760.186 71740.788
2197 73774.679 71747.772
2198 73771.003 71749.746
2199 73765.500 71747.964
2200 73773.387 71749.734
2201 73774.641 71745.897
2202 73775.941 71753.194
2203 73787.662 71762.066
2204 73792.988 71766.411
2205 73798.436 71765.653
2206 73805.391 71768.512
2207 73803.127 71774.515
2208 73800.666 71770.635
2209 73807.080 71776.466
2210 73818.656 71773.310
2211 73815.358 71777.383
2212 73830.165 71782.024
2213 73847.435 71790.105
2214 73830.378 71787.747
2215 73833.897 71790.017
2216 73851.497 71789.055
2217 73861.325 71797.422
2218 73863.805 71804.222
2219 73870.484 71806.135
2220 73869.742 71811.291
2221 73865.483 71801.166
2222 73838.208 71788.538
2223 73792.552 71770.685
2224 73739.627 71740.264
2225 73680.664 71711.828
2226 73648.312 71684.208
2227 73612.506 71672.687
2228 73591.150 71660.174
2229 73579.432 71658.120
2230 73577.228 71650.276
2231 73573.419 71656.446
2232 73580.139 71656.945
2233 73584.554 71654.832
2234 73586.579 71662.098
2235 73591.354 71664.855
2236 73597.472 71668.562
2237 73609.177 71670.946
2238 73615.978 71679.701
2239 73626.736 71683.021
2240 73632.660 71685.510
2241 73637.489 71686.474
2242 73641.207 71686.244
2243 73636.196 71694.179
2244 73643.655 71691.094
2245 73655.190 71694.686
2246 73664.386 71697.696
2247 73663.783 71700.481
2248 73679.172 71713.548
2249 73682.013 71711.717
2250 73682.902 71713.658
2251 73684.818 71714.326
2252 73686.220 71718.000
2253 73685.179 71713.071
2254 73679.947 71702.068
2255 73681.378 71709.191
2256 73686.613 71702.218
2257 73687.528 71709.816
2258 73691.399 71713.625
2259 73688.081 71717.553
2260 73691.804 71712.862
2261 73708.458 71715.574
2262 73703.060 71717.338
2263 73710.166 71727.192
2264 73713.424 71725.463
2265 73714.655 71724.587
2266 73731.998 71736.916
2267 73745.285 71744.031
2268 73752.073 71739.623
2269 73757.288 71747.986
2270 73763.248 71750.121
2271 73765.433 71752.892
2272 73771.253 71751.923
2273 73773.753 71749.814
2274 73777.574 71750.199
2275 73775.382 71752.885
2276 73777.492 71764.075
2277 73792.291 71759.387
2278 73796.006 71763.881
2279 73801.292 71766.831
2280 73805.746 71776.616
2281 73813.831 71781.656
2282 73810.365 71781.453
2283 73818.755 71774.725
2284 73814.408 71778.947
2285 73819.611 71788.205
2286 73825.993 71776.793
2287 73842.624 71788.818
2288 73837.837 71789.321
2289 73842.609 71794.120
2290 73839.656 71793.888
2291 73849.902 71797.537
2292 73844.366 71800.765
2293 73856.438 71803.031
2294 73866.116 71803.432
2295 73863.590 71807.559
2296 73875.206 71810.450
2297 73888.725 71818.014
2298 73885.012 71815.956
2299 73874.491 71810.599
2300 73858.392 71801.423
2301 73802.272 71778.266
2302 73752.866 71742.348
2303 73706.361 71717.071
2304 73647.863 71695.038
2305 73617.322 71675.810
2306 73587.752 71658.396
2307 73581.874 71657.473
2308 73571.401 71656.893
2309 73574.541 71650.893
2310 73574.677 71654.967
2311 73578.163 71650.209
2312 73585.108 71658.227
2313 73591.298 71662.756
2314 73589.742 71661.410
2315 73596.926 71654.588
2316 73597.925 71662.957
2317 73606.953 71669.849
2318 73612.840 71662.894
2319 73616.280 71673.467
2320 73613.783 71673.546
2321 73613.372 71674.917
2322 73624.218 71674.082
2323 73636.541 71674.703
2324 73641.196 71685.618
2325 73643.864 71685.027
2326 73647.850 71690.852
2327 73663.093 71691.971
2328 73661.595 71693.036
2329 73667.454 71693.076
2330 73674.184 71702.724
2331 73674.309 71697.985
2332 73692.262 71702.501
2333 73679.106 71712.912
2334 73676.001 71700.684
2335 73672.303 71699.455
2336 73667.998 71705.022
2337 73669.955 71703.094
2338 73680.323 71703.661
2339 73687.930 71703.955
2340 73692.156 71711.036
2341 73700.386 71715.513
2342 73702.974 71718.627
2343 73708.252 71719.562
2344 73710.531 71717.539
2345 73720.191 71722.448
2346 73723.293 71722.122
2347 73735.184 71729.994
2348 73747.879 71735.850
2349 73757.593 71747.920
2350 73762.104 71749.525
2351 73758.504 71745.219
2352 73760.407 71749.640
2353 73765.086 71751.197
2354 73769.229 71746.579
2355 73773.583 71751.088
2356 73781.089 71757.734
2357 73789.891 71757.302
2358 73790.438 71763.659
2359 73800.684 71765.343
2360 73795.283 71772.139
2361 73798.929 71772.850
2362 73812.532 71768.257
2363 73817.920 71773.833
2364 73819.901 71770.782
2365 73811.440 71773.594
2366 73817.485 71778.360
2367 73832.829 71783.902
2368 73837.211 71787.062
2369 73838.990 71790.769
2370 73845.111 71785.623
2371 73852.470 71796.008
2372 73849.294 71795.846
2373 73855.540 71800.138
2374 73855.706 71799.156
2375 73864.594 71800.956
2376 73868.478 71804.048
2377 73885.235 71817.661
2378 73894.626 71820.402
2379 73901.345 71818.890
2380 73901.567 71822.785
2381 73894.277 71817.642
2382 73875.358 71808.752
2383 73847.043 71794.508
2384 73786.494 71768.599
2385 73724.714 71734.345
2386 73674.593 71706.002
2387 73637.718 71690.294
2388 73607.778 71678.126
2389 73591.400 71665.771
2390 73582.793 71664.984
2391 73578.695 71654.278
2392 73579.464 71652.281
2393 73581.199 71654.074
2394 73583.880 71657.844
2395 73591.142 71663.700
2396 73594.970 71660.472
2397 73606.397 71663.126
2398 73613.795 71670.872
2399 73617.689 71673.269
2400 73620.030 71681.601
2401 73624.809 71673.880
2402 73625.169 71675.488
2403 73631.106 71686.971
2404 73629.878 71676.994
2405 73640.056 71681.890
2406 73642.545 71690.975
2407 73648.351 71689.266
2408 73661.690 71687.489
2409 73668.397 71696.317
2410 73677.442 71699.906
2411 73678.449 71703.310
2412 73688.986 71711.804
2413 73688.634 71711.379
2414 73680.939 71708.807
2415 73685.714 71707.060
2416 73685.171 71708.457
2417 73688.418 71708.908
2418 73687.677 71705.997
2419 73687.820 71711.263
2420 73696.492 71702.813
2421 73697.035 71710.531
2422 73704.558 71721.068
2423 73710.344 71718.248
2424 73716.576 71722.945
2425 73718.592 71721.598
2426 73720.852 71723.708
2427 73725.439 71733.930
2428 73747.150 71739.483
2429 73750.746 71735.081
2430 73752.369 71740.460
2431 73761.429 71744.928
2432 73773.123 71751.429
2433 73780.881 71752.183
2434 73782.310 71757.697
2435 73772.458 71755.333
2436 73775.269 71750.020
2437 73785.063 71749.966
2438 73797.540 71761.932
2439 73800.979 71761.497
2440 73812.912 71763.700
2441 73806.729 71769.580
2442 73816.315 71775.407
2443 73821.100 71776.693
2444 73814.984 71779.009
2445 73823.330 71773.586
2446 73830.066 71778.226
2447 73834.746 71782.398
2448 73846.816 71785.182
2449 73855.717 71792.867
2450 73863.211 71806.794
2451 73859.133 71802.068
2452 73868.342 71801.120
2453 73871.421 71805.420
2454 73876.677 71802.467
2455 73870.755 71806.590
2456 73875.946 71804.107
2457 73885.604 71805.075
2458 73888.699 71812.621
2459 73893.922 71817.000
2460 73905.912 71815.234
2461 73910.089 71823.362
2462 73907.602 71816.768
2463 73913.156 71827.078
2464 73915.590 71830.180
2465 73912.570 71823.848
2466 73909.447 71822.580
2467 73886.631 71807.431
2468 73844.586 71783.790
2469 73787.296 71752.439
2470 73724.054 71728.521
2471 73665.909 71698.513
2472 73631.654 71680.885
2473 73611.870 71666.706
2474 73598.423 71660.335
2475 73588.590 71658.274
2476 73584.667 71652.954
2477 73592.871 71657.266
2478 73605.367 71662.290
2479 73614.940 71667.944
2480 73620.102 71668.803
2481 73627.964 71672.027
2482 73630.851 71675.228
2483 73638.287 71682.359
2484 73640.489 71681.364
2485 73639.618 71684.398
2486 73653.983 71682.584
2487 73654.533 71686.194
2488 73657.028 71688.641
2489 73656.074 71690.180
2490 73662.453 71692.259
2491 73674.142 71691.676
2492 73680.847 71694.574
2493 73692.559 71703.664
2494 73707.014 71715.169
2495 73697.813 71712.572
2496 73697.767 71710.808
2497 73700.652 71714.922
2498 73706.452 71704.412
2499 73708.634 71713.840
2500 73703.619 71723.157
2501 73717.048 71715.398
2502 73710.720 71718.213
2503 73705.709 71716.762
2504 73710.263 71713.046
2505 73712.111 71715.859
2506 73716.718 71713.227
2507 73725.470 71718.966
2508 73735.138 71721.695
2509 73734.211 71733.215
2510 73741.206 71730.573
2511 73750.007 71737.528
2512 73757.501 71740.769
2513 73767.068 71747.379
2514 73772.481 71749.110
2515 73777.494 71757.168
2516 73782.003 71757.522
2517 73784.173 71750.836
2518 73796.554 71759.774
2519 73791.479 71762.549
2520 73799.896 71763.172
2521 73809.213 71761.905
2522 73807.744 71765.139
2523 73814.844 71771.763
2524 73822.037 71777.873
2525 73824.144 71773.141
2526 73820.807 71774.930
2527 73825.053 71771.977
2528 73842.591 71786.262
2529 73840.519 71783.824
2530 73845.791 71781.298
2531 73848.769 71790.746
2532 73862.316 71796.745
2533 73862.005 71797.874
2534 73869.697 71803.915
2535 73861.110 71800.791
2536 73869.542 71803.614
2537 73883.144 71803.210
2538 73884.393 71810.153
2539 73895.738 71813.738
2540 73896.545 71823.011
2541 73901.464 71819.286
2542 73909.978 71814.582
2543 73916.991 71824.149
2544 73918.899 71825.442
2545 73919.868 71818.249
2546 73919.801 71824.274
2547 73910.064 71822.235
2548 73888.957 71814.102
2549 73834.118 71791.182
2550 73774.933 71752.452
2551 73722.599 71735.649
2552 73685.766 71707.479
2553 73649.364 71694.638
2554 73624.924 71679.166
2555 73611.514 71667.751
2556 73600.843 71675.443
2557 73597.561 71667.123
2558 73608.831 71666.465
2559 73617.952 71671.999
2560 73618.683 71683.889
2561 73637.259 71680.233
2562 73656.080 71691.591
2563 73648.309 71690.117
2564 73651.868 71690.670
2565 73661.502 71695.072
2566 73660.885 71697.974
2567 73663.709 71697.710
2568 73665.730 71703.525
2569 73682.035 71707.625
2570 73690.061 71706.467
2571 73692.298 71715.353
2572 73699.851 71719.237
2573 73707.838 71716.650
2574 73715.643 71722.807
2575 73716.714 71719.217
2576 73711.382 71723.680
2577 73715.750 71720.863
2578 73718.958 71726.966
2579 73723.383 71725.986
2580 73721.620 71725.593
2581 73714.948 71721.507
2582 73721.612 71728.393
2583 73725.286 71733.501
2584 73721.906 71722.474
2585 73723.809 71729.011
2586 73719.489 71725.394
2587 73730.432 71736.672
2588 73742.933 71731.192
2589 73747.972 71739.420
2590 73748.184 71740.489
2591 73756.324 71740.734
2592 73767.855 71751.325
2593 73766.732 71748.626
2594 73782.447 71762.738
2595 73777.095 71758.287
2596 73794.113 71765.638
2597 73797.123 71766.234
2598 73803.874 71773.509
2599 73807.568 71776.537
2600 73809.481 71771.424
2601 73822.850 71783.000
2602 73824.645 71782.661
2603 73829.207 71779.636
2604 73831.190 71778.407
2605 73836.418 71788.672
2606 73837.889 71784.086
2607 73845.572 71788.957
2608 73845.763 71796.119
2609 73857.371 71794.271
2610 73855.994 71803.615
2611 73859.558 71795.670
2612 73857.273 71809.385
2613 73869.734 71808.333
2614 73874.357 71806.315
2615 73887.351 71815.585
2616 73886.936 71821.206
2617 73892.030 71821.838
2618 73897.761 71815.433
2619 73905.193 71820.771
2620 73911.830 71826.940
2621 73906.827 71830.396
2622 73917.170 71830.257
2623 73922.577 71832.943
2624 73912.759 71833.723
2625 73894.627 71821.514
2626 73848.536 71800.729
2627 73783.658 71764.387
2628 73726.256 71737.307
2629 73685.418 71714.216
2630 73651.057 71695.339
2631 73628.599 71681.097
2632 73608.990 71670.193
2633 73600.210 71671.191
2634 73600.342 71665.073
2635 73600.094 71666.265
2636 73599.396 71662.970
2637 73598.253 71664.471
2638 73618.532 71667.707
2639 73619.358 71675.197
2640 73621.594 71683.098
2641 73633.711 71682.839
2642 73646.705 71692.315
2643 73654.221 71691.118
2644 73651.003 71686.311
2645 73652.727 71687.791
2646 73647.121 71697.723
2647 73659.661 71696.290
2648 73661.017 71692.125
2649 73670.081 71704.472
2650 73678.562 71702.565
2651 73685.384 71703.829
2652 73701.469 71711.070
2653 73697.578 71707.261
2654 73702.440 71712.063
2655 73696.357 71707.444
2656 73692.669 71710.754
2657 73688.375 71711.095
2658 73704.600 71713.473
2659 73716.205 71726.193
2660 73708.590 71718.728
2661 73717.411 71725.074
2662 73722.807 71729.532
2663 73717.497 71729.264
2664 73720.717 71732.470
2665 73719.691 71726.920
2666 73724.805 71729.236
2667 73730.457 71728.144
2668 73742.520 71733.646
2669 73760.326 71751.282
2670 73763.222 71752.144
2671 73770.005 71755.508
2672 73778.457 71761.194
2673 73773.970 71754.773
2674 73789.015 71757.614
2675 73793.006 71764.604
2676 73793.085 71760.401
2677 73798.869 71770.633
2678 73805.871 71778.617
2679 73818.405 71785.505
2680 73813.038 71780.016
2681 73827.871 71783.473
2682 73821.474 71782.308
2683 73826.583 71775.553
2684 73828.524 71782.239
2685 73830.600 71784.874
2686 73838.250 71791.947
2687 73844.363 71793.995
2688 73845.365 71793.135
2689 73848.053 71797.739
2690 73859.037 71801.642
2691 73863.480 71807.059
2692 73864.304 71807.770
2693 73869.712 71801.815
2694 73872.231 71811.883
2695 73872.764 71810.215
2696 73876.831 71813.223
2697 73883.608 71817.502
2698 73892.269 71820.118
2699 73901.301 71819.797
2700 73900.642 71826.042
2701 73908.906 71828.111
2702 73910.877 71833.962
2703 73921.862 71836.708
2704 73919.295 71834.428
2705 73909.755 71829.912
2706 73860.355 71806.277
2707 73806.915 71777.511
2708 73741.662 71745.918
2709 73689.171 71723.665
2710 73647.725 71697.551
2711 73618.683 71677.327
2712 73603.835 71662.798
2713 73594.653 71660.120
2714 73588.265 71660.044
2715 73594.376 71663.364
2716 73598.989 71668.195
2717 73598.419 71660.376
2718 73593.785 71665.564
2719 73611.621 71677.744
2720 73621.144 71673.066
2721 73619.803 71677.784
2722 73623.048 71680.167
2723 73636.213 71683.421
2724 73640.018 71688.863
2725 73646.139 71691.957
2726 73641.398 71685.031
2727 73640.613 71682.527
2728 73642.779 71688.000
2729 73658.040 71692.144
2730 73661.568 71703.930
2731 73679.309 71703.623
2732 73675.868 71706.744
2733 73685.222 71710.648
2734 73688.737 71719.944
2735 73698.804 71708.076
2736 73690.025 71710.866
2737 73692.718 71711.343
2738 73690.322 71709.498
2739 73694.346 71712.682
2740 73704.263 71722.405
2741 73696.753 71718.583
2742 73693.872 71713.564
2743 73696.160 71717.116
2744 73705.108 71720.113
2745 73706.034 71720.214
2746 73712.072 71726.171
2747 73717.225 71731.136
2748 73727.123 71729.345
2749 73732.255 71738.114
2750 73740.885 71744.720
2751 73751.898 71742.549
2752 73757.078 71745.905
2753 73761.993 71752.263
2754 73763.394 71755.840
2755 73766.780 71754.764
2756 73774.746 71756.688
2757 73776.967 71752.363
2758 73777.942 71757.972
2759 73792.577 71760.531
2760 73795.246 71766.708
2761 73795.480 71773.110
2762 73809.548 71778.118
2763 73811.301 71780.020
2764 73807.336 71781.822
2765 73804.985 71779.967
2766 73815.443 71771.701
2767 73822.185 71782.340
2768 73830.293 71789.772
2769 73837.377 71795.195
2770 73846.248 71801.071
2771 73850.925 71804.782
2772 73854.349 71800.239
2773 73858.862 71802.291
2774 73860.403 71804.473
2775 73859.958 71800.735
2776 73868.882 71810.226
2777 73875.262 71810.589
2778 73878.772 71819.439
2779 73882.574 71822.079
2780 73896.008 71821.443
2781 73903.027 71828.230
2782 73905.025 71828.518
2783 73907.347 71828.237
2784 73907.434 71825.196
2785 73897.563 71821.439
2786 73864.991 71806.066
2787 73807.870 71780.911
2788 73747.901 71745.661
2789 73700.027 71715.265
2790 73665.479 71696.555
2791 73635.603 71684.589
2792 73617.235 71674.927
2793 73606.835 71665.806
2794 73608.987 71667.356
2795 73603.275 71667.975
2796 73599.064 71662.965
2797 73609.573 71667.814
2798 73618.320 71673.310
2799 73621.046 71681.193
2800 73622.964 71679.395
2801 73632.244 71672.252
2802 73641.279 71680.286
2803 73639.127 71675.343
2804 73646.294 71675.552
2805 73646.951 71674.245
2806 73651.905 71678.939
2807 73639.679 71681.697
2808 73642.227 71675.205
2809 73652.203 71673.894
2810 73654.501 71673.731
2811 73654.302 71678.461
2812 73670.878 71678.097
2813 73680.207 71683.762
2814 73682.152 71684.299
2815 73684.042 71701.564
2816 73693.101 71699.638
2817 73686.138 71690.249
2818 73679.879 71688.188
2819 73680.602 71686.812
2820 73685.210 71687.854
2821 73692.830 71694.040
2822 73700.890 71701.605
2823 73707.438 71721.775
2824 73714.944 71712.378
2825 73724.804 71715.150
2826 73714.622 71713.399
2827 73724.522 71712.045
2828 73729.033 71724.869
2829 73740.793 71734.070
2830 73746.139 71737.775
2831 73754.380 71733.550
2832 73768.056 71748.686
2833 73769.292 71742.866
2834 73775.606 71754.100
2835 73781.780 71757.657
2836 73781.783 71757.030
2837 73786.333 71762.928
2838 73798.610 71762.667
2839 73790.553 71764.810
2840 73805.283 71770.366
2841 73816.183 71772.251
2842 73811.971 71777.514
2843 73825.473 71779.608
2844 73828.967 71786.249
2845 73825.936 71785.199
2846 73829.938 71782.524
2847 73826.696 71785.044
2848 73832.404 71780.149
2849 73834.617 71793.648
2850 73848.552 71798.848
2851 73855.324 71807.506
2852 73861.142 71809.447
2853 73868.442 71809.586
2854 73867.559 71818.260
2855 73864.928 71818.732
2856 73866.057 71813.079
2857 73873.599 71814.672
2858 73880.815 71818.473
2859 73883.638 71822.790
2860 73893.399 71834.248
2861 73904.039 71827.936
2862 73914.308 71836.799
2863 73915.199 71834.013
2864 73898.088 71830.722
2865 73868.654 71809.610
2866 73822.847 71791.524
2867 73761.238 71759.925
2868 73711.049 71734.316
2869 73673.226 71725.204
2870 73647.805 71707.839
2871 73630.915 71695.768
2872 73610.807 71691.965
2873 73602.832 71683.699
2874 73605.026 71681.708
2875 73606.076 71677.993
2876 73615.084 71692.473
2877 73614.060 71688.711
2878 73623.075 71682.134
2879 73639.998 71691.573
2880 73652.460 71702.680
2881 73654.330 71703.963
2882 73669.763 71699.643
2883 73659.356 71704.985
2884 73662.415 71704.749
2885 73666.110 71711.646
2886 73668.202 71706.085
2887 73676.725 71719.412
2888 73692.112 71716.363
2889 73697.194 71722.473
2890 73699.460 71720.948
2891 73709.009 71730.173
2892 73714.986 71734.394
2893 73713.407 71737.712
2894 73720.236 71737.741
2895 73721.606 71728.940
2896 73715.728 71732.169
2897 73716.282 71726.886
2898 73711.702 71731.980
2899 73710.784 71729.692
2900 73711.622 71736.004
2901 73721.872 71732.723
2902 73720.773 71734.952
2903 73722.641 71735.055
2904 73733.432 71738.432
2905 73733.707 71750.833
2906 73740.442 71747.016
2907 73751.011 71750.860
2908 73757.313 71749.656
2909 73760.299 71751.043
2910 73765.438 71751.434
2911 73782.979 71762.272
2912 73782.045 71764.552
2913 73790.977 71773.520
2914 73792.192 71781.073
2915 73799.444 71782.009
2916 73799.274 71788.794
2917 73795.681 71778.268
2918 73799.739 71773.873
2919 73802.020 71774.082
2920 73810.404 71772.812
2921 73819.174 71785.757
2922 73824.262 71785.852
2923 73838.513 71796.884
2924 73839.649 71797.780
2925 73840.946 71794.745
2926 73842.199 71797.869
2927 73849.701 71799.909
2928 73847.893 71793.974
2929 73851.021 71800.622
2930 73854.533 71795.848
2931 73860.531 71802.457
2932 73861.773 71813.889
2933 73879.375 71813.012
2934 73885.040 71810.610
2935 73889.506 71816.813
2936 73899.774 71822.683
2937 73893.932 71830.225
2938 73901.212 71826.581
2939 73896.183 71815.303
2940 73892.366 71818.701
2941 73865.571 71806.035
2942 73820.572 71780.006
2943 73768.802 71753.738
2944 73706.117 71720.743
2945 73665.896 71706.542
2946 73626.824 71685.401
2947 73610.248 71671.217
2948 73598.017 71662.271
2949 73579.173 71647.930
2950 73595.249 71660.226
2951 73592.223 71668.125
2952 73601.679 71669.290
2953 73610.569 71673.299
2954 73618.390 71671.228
2955 73620.684 71673.280
2956 73625.447 71673.456
2957 73631.765 71672.976
2958 73631.873 71680.758
2959 73631.102 71679.017
2960 73639.123 71680.834
2961 73642.044 71683.714
2962 73648.421 71688.578
2963 73655.215 71697.209
2964 73669.290 71700.701
2965 73675.796 71703.908
2966 73680.531 71709.204
2967 73690.559 71711.522
2968 73689.732 71706.978
2969 73692.586 71707.211
2970 73707.136 71719.157
2971 73710.255 71714.862
2972 73714.358 71713.140
2973 73708.099 71719.512
2974 73709.618 71715.826
2975 73707.735 71712.062
2976 73707.744 71713.136
2977 73702.489 71713.941
2978 73709.115 71711.827
2979 73713.693 71711.570
2980 73710.078 71716.216
2981 73721.216 71722.780
2982 73728.036 71730.870
2983 73729.935 71731.867
2984 73744.102 71728.504
2985 73749.869 71728.661
2986 73756.847 71744.664
2987 73770.195 71743.571
2988 73778.042 71748.448
2989 73773.691 71746.475
2990 73775.303 71756.489
2991 73783.664 71756.648
2992 73795.259 71759.690
2993 73801.988 71764.595
2994 73805.223 71770.011
2995 73812.981 71775.425
2996 73815.310 71770.107
2997 73821.310 71775.796
2998 73818.713 71775.206
2999 73819.138 71774.401
3000 73823.573 71769.074
3001 73835.075 71781.331
3002 73846.433 71785.935
3003 73848.100 71789.986
3004 73848.496 71783.277
3005 73860.258 71793.698
3006 73851.720 71797.369
3007 73863.130 71792.283
3008 73868.221 71792.237
3009 73875.342 71802.692
3010 73879.045 71800.795
3011 73877.101 71808.235
3012 73888.001 71809.024
3013 73900.373 71816.668
3014 73905.048 71815.940
3015 73908.860 71821.594
3016 73912.587 71819.432
3017 73922.089 71817.731
3018 73915.226 71821.499
3019 73919.591 71824.139
3020 73916.523 71817.910
3021 73897.399 71804.280
3022 73847.220 71788.929
3023 73789.483 71762.086
3024 73734.057 71727.595
3025 73685.401 71705.244
3026 73645.288 71683.936
3027 73613.849 71673.705
3028 73593.587 71660.867
3029 73590.683 71646.646
3030 73593.144 71651.426
3031 73594.122 71656.617
3032 73607.956 71658.804
3033 73620.124 71658.640
3034 73615.967 71666.459
3035 73624.037 71671.991
3036 73626.211 71669.373
3037 73632.858 71671.527
3038 73636.252 71667.132
3039 73642.456 71669.439
3040 73636.895 71670.541
3041 73640.024 71670.582
3042 73647.858 71676.410
3043 73653.713 71684.528
3044 73654.510 71680.248
3045 73664.949 71681.200
3046 73678.055 71684.499
3047 73682.309 71685.046
3048 73682.253 71689.024
3049 73691.847 71694.080
3050 73703.521 71701.384
3051 73702.957 71706.209
3052 73703.072 71702.770
3053 73709.274 71705.991
3054 73710.952 71702.212
3055 73707.760 71699.003
3056 73708.992 71705.135
3057 73706.607 71701.478
3058 73708.473 71702.313
3059 73708.401 71707.366
3060 73710.732 71705.832
3061 73726.863 71701.180
3062 73733.532 71721.338
3063 73735.322 71717.719
3064 73747.623 71722.969
3065 73752.579 71722.713
3066 73757.787 71727.534
3067 73759.501 71733.367
3068 73764.097 71731.485
3069 73773.379 71740.924
3070 73785.599 71741.013
3071 73789.209 71744.444
3072 73793.559 71749.668
3073 73791.466 71742.818
3074 73790.371 71743.054
3075 73801.402 71747.065
3076 73807.083 71757.520
3077 73814.147 71758.824
3078 73823.389 71755.351
3079 73821.481 71757.349
3080 73816.788 71762.109
3081 73821.227 71759.556
3082 73830.631 71766.385
3083 73835.658 71768.515
3084 73850.428 71769.267
3085 73849.181 71782.930
3086 73863.465 71778.949
3087 73877.541 71789.291
3088 73880.239 71793.835
3089 73867.480 71777.957
3090 73871.135 71779.221
3091 73880.357 71797.723
3092 73885.055 71791.912
3093 73901.886 71798.020
3094 73903.059 71800.366
3095 73905.967 71809.239
3096 73909.305 71808.811
3097 73915.827 71809.186
3098 73917.877 71808.320
3099 73921.322 71808.821
3100 73923.604 71812.400
3101 73932.491 71818.661
3102 73938.508 71819.443
3103 73942.511 71826.737
3104 73932.135 71825.949
3105 73912.421 71811.397
3106 73861.406 71780.025
3107 73798.897 71747.718
3108 73721.618 71707.831
3109 73669.881 71676.424
3110 73629.082 71659.056
3111 73605.341 71653.662
3112 73597.260 71644.917
3113 73594.251 71642.619
3114 73591.148 71637.859
3115 73598.177 71645.205
3116 73599.067 71642.983
3117 73603.347 71647.127
3118 73612.382 71647.197
3119 73617.173 71652.329
3120 73622.117 71650.960
3121 73640.084 71654.647
3122 73650.213 71664.685
3123 73653.285 71661.756
3124 73647.787 71667.360
3125 73638.779 71666.252
3126 73645.276 71666.089
3127 73651.105 71666.088
3128 73660.066 71670.633
3129 73666.963 71673.269
3130 73680.049 71681.874
3131 73692.631 71689.718
3132 73704.932 71693.735
3133 73708.476 71699.158
3134 73711.983 71702.857
3135 73720.073 71697.860
3136 73718.994 71696.539
3137 73718.106 71703.821
3138 73716.219 71704.647
3139 73714.017 71700.999
3140 73711.754 71703.318
3141 73718.848 71706.512
3142 73727.872 71707.036
3143 73733.797 71711.686
3144 73740.749 71713.124
3145 73737.680 71709.705
3146 73751.513 71720.157
3147 73759.029 71719.027
3148 73754.482 71727.907
3149 73764.688 71727.314
3150 73779.984 71725.635
3151 73783.538 71734.390
3152 73796.122 71734.729
3153 73798.445 71740.957
3154 73810.777 71746.950
3155 73811.975 71752.049
3156 73820.433 71753.273
3157 73820.899 71752.206
3158 73834.295 71763.549
3159 73835.049 71769.946
3160 73833.102 71763.322
3161 73851.500 71770.942
3162 73848.328 71779.070
3163 73858.616 71778.535
3164 73864.685 71772.694
3165 73863.249 71777.251
3166 73871.235 71782.966
3167 73877.027 71785.607
3168 73880.461 71786.670
3169 73876.243 71786.841
3170 73878.740 71789.867
3171 73886.676 71792.665
3172 73897.349 71791.095
3173 73900.262 71798.212
3174 73914.658 71801.641
3175 73919.922 71809.140
3176 73925.535 71817.805
3177 73930.035 71825.193
3178 73931.572 71821.352
3179 73934.319 71818.178
3180 73935.613 71816.924
3181 73943.615 71818.444
3182 73950.371 71826.517
3183 73951.708 71827.736
3184 73964.374 71836.047
3185 73963.967 71840.973
3186 73962.996 71843.285
3187 73979.361 71844.384
3188 73990.929 71844.912
3189 73985.207 71842.589
3190 73981.035 71841.359
3191 73960.776 71835.112
3192 73933.291 71821.460
3193 73876.103 71790.754
3194 73802.162 71757.777
3195 73741.094 71728.314
3196 73695.188 71689.710
3197 73664.747 71673.362
3198 73640.281 71672.069
3199 73619.881 71655.560
3200 73612.223 71659.363
3201 73624.287 71655.433
3202 73626.016 71662.400
3203 73642.323 71666.425
3204 73649.591 71667.341
3205 73663.068 71676.102
3206 73665.941 71675.487
3207 73670.820 71689.317
3208 73684.533 71687.167
3209 73681.472 71695.577
3210 73681.888 71687.882
3211 73692.160 71689.480
3212 73693.822 71693.797
3213 73713.561 71683.708
3214 73707.545 71695.857
3215 73710.120 71701.451
3216 73721.997 71703.122
3217 73728.411 71704.234
3218 73738.055 71705.671
3219 73732.951 71716.339
3220 73735.339 71711.132
3221 73746.251 71717.393
3222 73753.828 71721.741
3223 73754.257 71725.540
3224 73751.251 71715.005
3225 73745.873 71708.540
3226 73753.567 71725.055
3227 73751.276 71719.628
3228 73750.238 71715.092
3229 73756.087 71716.104
3230 73756.397 71722.743
3231 73760.724 71726.499
3232 73772.896 71731.449
3233 73779.033 71736.565
3234 73790.069 71741.873
3235 73796.969 71744.303
3236 73801.136 71747.008
3237 73810.759 71754.464
3238 73816.034 71753.125
3239 73819.625 71767.398
3240 73833.008 71762.909
3241 73838.541 71767.759
3242 73849.462 71770.826
3243 73851.767 71769.299
3244 73853.128 71768.624
3245 73858.885 71775.027
3246 73864.691 71781.756
3247 73860.341 71780.804
3248 73869.099 71785.069
3249 73868.778 71791.080
3250 73882.125 71786.928
3251 73879.528 71789.590
3252 73885.535 71793.003
3253 73894.499 71797.987
3254 73894.670 71799.274
3255 73894.562 71793.992
3256 73903.973 71797.120
3257 73915.454 71798.660
3258 73923.163 71808.992
3259 73916.312 71812.736
3260 73924.214 71812.490
3261 73916.653 71809.323
3262 73922.894 71812.510
3263 73931.864 71823.664
3264 73936.414 71821.775
3265 73948.758 71822.726
3266 73954.413 71826.766
3267 73960.602 71828.325
3268 73965.683 71838.408
3269 73965.668 71839.804
3270 73963.424 71834.546
3271 73968.090 71830.997
3272 73965.275 71829.865
3273 73931.328 71819.466
3274 73882.798 71790.312
3275 73812.536 71754.323
3276 73751.712 71728.573
3277 73708.644 71700.867
3278 73675.677 71686.321
3279 73650.275 71670.762
3280 73634.104 71651.893
3281 73621.297 71659.229
3282 73635.923 71659.972
3283 73634.479 71661.782
3284 73636.868 71663.083
3285 73645.891 71666.243
3286 73659.852 71665.858
3287 73666.743 71675.014
3288 73664.150 71676.999
3289 73678.029 71681.086
3290 73684.272 71679.228
3291 73686.115 71684.608
3292 73695.298 71699.283
3293 73707.720 71698.087
3294 73706.160 71703.377
3295 73713.772 71701.331
3296 73717.072 71699.976
3297 73731.293 71710.014
3298 73740.776 71713.583
3299 73737.084 71711.499
3300 73741.871 71712.984
3301 73737.703 71715.682
3302 73753.113 71716.118
3303 73759.240 71718.606
3304 73757.991 71725.596
3305 73763.284 71727.217
3306 73755.790 71721.624
3307 73757.670 71720.633
3308 73747.471 71716.535
3309 73755.278 71724.549
3310 73757.348 71719.165
3311 73762.261 71724.954
3312 73771.633 71728.264
3313 73781.815 71735.759
3314 73784.367 71736.807
3315 73795.134 71739.263
3316 73799.197 71745.388
3317 73814.259 71748.970
3318 73815.004 71751.421
3319 73827.732 71764.914
3320 73827.196 71771.258
3321 73833.800 71766.934
3322 73843.835 71767.818
3323 73849.010 71776.297
3324 73858.295 71780.470
3325 73862.145 71780.090
3326 73867.785 71777.278
3327 73866.324 71777.199
3328 73879.219 71783.153
3329 73881.305 71792.653
3330 73883.061 71790.295
3331 73891.365 71789.127
3332 73893.019 71794.280
3333 73903.127 71798.944
3334 73904.214 71805.060
3335 73911.496 71804.644
3336 73910.851 71810.564
3337 73905.674 71804.763
3338 73930.568 71813.272
3339 73924.718 71815.243
3340 73935.457 71820.827
3341 73937.166 71827.465
3342 73946.687 71821.996
3343 73944.634 71825.313
3344 73955.394 71828.855
3345 73958.880 71828.980
3346 73961.722 71830.760
3347 73974.358 71836.578
3348 73980.075 71838.864
3349 73972.562 71841.934
3350 73976.110 71835.104
3351 73954.354 71826.815
3352 73905.873 71804.178
3353 73855.646 71777.828
3354 73784.847 71740.417
3355 73720.933 71709.884
3356 73688.338 71684.277
3357 73660.308 71669.004
3358 73643.066 71670.204
3359 73632.176 71662.094
3360 73615.089 71655.404
3361 73627.903 71655.559
3362 73625.593 71653.918
3363 73642.043 71665.076
3364 73650.396 71665.895
3365 73651.701 71666.970
3366 73659.164 71672.414
3367 73669.680 71678.743
3368 73677.369 71681.592
3369 73673.882 71681.224
3370 73675.257 71677.422
3371 73676.261 71683.062
3372 73676.608 71675.978
3373 73689.333 71686.660
3374 73686.279 71684.798
3375 73697.741 71689.699
3376 73710.299 71701.050
3377 73719.600 71701.912
3378 73721.294 71704.573
3379 73735.562 71703.251
3380 73725.115 71703.211
3381 73731.515 71701.924
3382 73736.683 71708.930
3383 73732.438 71708.265
3384 73743.464 71705.689
3385 73741.616 71712.148
3386 73749.521 71715.105
3387 73756.204 71725.164
3388 73755.817 71716.207
3389 73756.698 71720.690
3390 73756.000 71721.289
3391 73748.460 71717.809
3392 73764.783 71723.150
3393 73779.829 71732.532
3394 73781.394 71741.975
3395 73795.374 71743.685
3396 73801.649 71743.390
3397 73804.849 71752.321
3398 73817.846 71755.254
3399 73824.659 71756.262
3400 73820.175 71751.331
3401 73827.004 71754.633
3402 73831.844 71758.966
3403 73847.199 71764.186
3404 73850.586 71768.956
3405 73847.766 71778.177
3406 73862.639 71779.772
3407 73859.423 71774.379
3408 73866.907 71777.008
3409 73865.868 71783.921
3410 73873.997 71777.864
3411 73881.595 71786.604
3412 73884.950 71789.447
3413 73890.101 71794.020
3414 73894.122 71800.793
3415 73896.806 71798.283
3416 73894.970 71797.891
3417 73913.730 71809.060
3418 73914.142 71807.061
3419 73914.684 71808.100
3420 73915.157 71803.766
3421 73929.564 71817.293
3422 73933.533 71815.257
3423 73934.074 71819.889
3424 73941.485 71819.847
3425 73946.991 71821.394
3426 73958.730 71829.544
3427 73961.754 71828.988
3428 73959.892 71831.439
3429 73960.781 71827.227
3430 73955.423 71829.406
3431 73921.989 71811.209
3432 73883.586 71790.247
3433 73814.103 71761.636
3434 73751.838 71721.763
3435 73710.234 71699.570
3436 73672.993 71680.196
3437 73651.970 71670.896
3438 73639.205 71662.249
3439 73628.580 71658.033
3440 73629.446 71658.400
3441 73630.966 71656.488
3442 73635.513 71665.292
3443 73646.666 71665.896
3444 73651.258 71669.375
3445 73653.932 71667.331
3446 73670.555 71672.054
3447 73673.759 71671.194
3448 73682.272 71677.633
3449 73683.797 71683.879
3450 73684.265 71690.825
3451 73678.537 71676.361
3452 73682.583 71675.708
3453 73688.740 71687.821
3454 73697.625 71692.225
3455 73703.915 71683.076
3456 73720.776 71697.432
3457 73721.059 71700.374
3458 73725.757 71700.036
3459 73733.107 71709.077
3460 73735.856 71708.323
3461 73735.157 71706.406
3462 73732.718 71712.254
3463 73745.126 71705.588
3464 73746.260 71714.102
3465 73748.611 71709.200
3466 73747.657 71721.123
3467 73751.263 71719.532
3468 73755.173 71715.559
3469 73759.940 71715.360
3470 73754.958 71713.343
3471 73755.026 71715.370
3472 73771.128 71722.525
3473 73773.665 71729.476
3474 73781.085 71738.135
3475 73788.330 71736.904
3476 73803.988 71743.166
3477 73809.234 71750.727
3478 73819.568 71756.494
3479 73825.562 71760.797
3480 73830.072 71760.963
3481 73839.273 71761.998
3482 73839.022 71756.762
3483 73848.000 71764.827
3484 73850.885 71766.760
3485 73855.956 71773.138
3486 73864.415 71780.125
3487 73865.536 71781.960
3488 73871.597 71778.945
3489 73875.621 71776.074
3490 73873.266 71778.750
3491 73875.807 71781.154
3492 73876.856 71779.954
3493 73884.311 71787.468
3494 73898.405 71788.805
3495 73904.574 71806.243
3496 73907.211 71806.010
3497 73919.436 71809.467
3498 73918.456 71811.702
3499 73922.273 71811.251
3500 73923.573 71812.655
3501 73932.914 71815.569
3502 73925.604 71816.161
3503 73933.123 71819.773
3504 73949.169 71833.148
3505 73950.292 71830.835
3506 73953.166 71835.718
3507 73958.326 71844.418
3508 73974.246 71843.473
3509 73974.548 71844.530
3510 73985.734 71845.459
3511 73982.756 71842.724
3512 73974.372 71843.318
3513 73963.649 71828.698
3514 73930.399 71819.077
3515 73878.662 71797.535
3516 73804.826 71756.908
3517 73745.943 71721.031
3518 73706.298 71701.666
3519 73678.955 71687.433
3520 73664.909 71677.568
3521 73661.500 71670.916
3522 73644.481 71680.408
3523 73648.581 71676.354
3524 73656.483 71675.900
3525 73664.539 71681.819
3526 73665.442 71685.439
3527 73669.457 71686.607
3528 73673.055 71684.455
3529 73681.765 71688.508
3530 73693.296 71686.740
3531 73698.657 71698.769
3532 73692.956 71685.599
3533 73703.391 71697.863
3534 73703.237 71695.516
3535 73707.943 71702.238
3536 73710.976 71707.560
3537 73726.566 71707.764
3538 73730.357 71707.950
3539 73737.427 71713.345
3540 73743.248 71719.497
3541 73747.276 71713.552
3542 73749.589 71721.233
3543 73749.945 71726.648
3544 73753.370 71719.944
3545 73751.865 71720.797
3546 73760.115 71718.982
3547 73748.222 71724.112
3548 73758.332 71720.821
3549 73766.266 71726.334
3550 73759.223 71731.446
3551 73764.833 71734.330
3552 73767.966 71733.505
3553 73768.129 71724.834
3554 73778.899 71731.791
3555 73791.250 71733.705
3556 73794.304 71743.255
3557 73798.868 71736.633
3558 73805.760 71751.944
3559 73817.291 71760.596
3560 73827.391 71755.391
3561 73830.387 71766.972
3562 73840.491 71758.057
3563 73840.942 71763.087
3564 73852.862 71774.385
3565 73856.215 71770.439
3566 73863.907 71780.569
3567 73863.852 71778.123
3568 73870.077 71781.952
3569 73872.810 71774.993
3570 73878.978 71784.402
3571 73873.498 71785.319
3572 73878.985 71785.547
3573 73883.731 71780.981
3574 73889.366 71787.416
3575 73899.916 71797.145
3576 73907.114 71789.905
3577 73913.172 71799.820
3578 73922.458 71808.252
3579 73913.865 71808.427
3580 73922.469 71811.875
3581 73927.522 71807.882
3582 73922.047 71813.912
3583 73925.203 71810.026
3584 73932.390 71808.337
3585 73945.015 71820.257
3586 73954.090 71823.306
3587 73956.627 71826.552
3588 73960.989 71829.554
3589 73960.926 71833.186
3590 73961.786 71834.221
3591 73970.153 71831.837
3592 73976.831 71832.274
3593 73968.623 71827.003
3594 73946.767 71817.356
3595 73906.162 71806.221
3596 73852.320 71783.363
3597 73795.106 71747.302
3598 73748.278 71717.890
3599 73702.836 71696.417
3600 73676.281 71682.896
3601 73659.886 71667.959
3602 73653.377 71662.772
3603 73651.137 71668.241
3604 73657.774 71674.800
3605 73655.762 71671.775
3606 73662.637 71676.884
3607 73676.907 71684.012
3608 73682.822 71678.266
3609 73687.958 71672.783
3610 73691.515 71679.294
3611 73695.153 71687.253
3612 73691.957 71689.013
3613 73700.192 71685.664
3614 73705.919 71696.380
3615 73713.765 71698.806
3616 73723.395 71697.108
3617 73736.420 71699.983
3618 73731.540 71705.183
3619 73748.973 71716.683
3620 73759.539 71726.178
3621 73763.240 71720.578
3622 73761.213 71720.940
3623 73774.403 71723.967
3624 73773.222 71728.892
3625 73773.657 71731.799
3626 73771.616 71724.968
3627 73768.439 71724.849
3628 73773.939 71713.836
3629 73772.895 71715.673
3630 73774.671 71725.815
3631 73775.688 71723.466
3632 73784.194 71725.452
3633 73787.434 71738.567
3634 73785.353 71732.677
3635 73800.070 71741.884
3636 73809.439 71745.552
3637 73818.389 71746.395
3638 73821.385 71751.768
3639 73834.664 71756.701
3640 73843.718 71763.730
3641 73853.854 71771.389
3642 73856.223 71769.075
3643 73865.953 71774.864
3644 73866.668 71776.942
3645 73876.953 71778.998
3646 73879.745 71783.185
3647 73885.670 71781.130
3648 73891.152 71792.416
3649 73893.289 71796.467
3650 73898.215 71799.887
3651 73902.396 71787.410
3652 73905.636 71786.858
3653 73902.136 71796.769
3654 73913.067 71793.663
3655 73921.663 71802.670
3656 73922.049 71803.914
3657 73926.025 71807.173
3658 73932.575 71810.645
3659 73935.445 71814.191
3660 73939.036 71822.509
3661 73949.182 71819.456
3662 73951.197 71821.329
3663 73953.925 71821.011
3664 73962.390 71825.657
3665 73966.912 71827.438
3666 73967.811 71829.542
3667 73974.694 71827.022
3668 73983.568 71837.271
3669 73984.557 71835.652
3670 73992.830 71833.828
3671 73991.459 71843.779
3672 73980.152 71840.632
3673 73978.282 71838.181
3674 73962.333 71820.193
3675 73914.304 71801.099
3676 73855.828 71764.310
3677 73789.948 71738.913
3678 73738.464 71714.719
3679 73711.331 71689.439
3680 73680.324 71692.500
3681 73658.397 71669.875
3682 73652.815 71654.864
3683 73648.929 71653.993
3684 73657.022 71656.069
3685 73668.192 71663.846
3686 73669.368 71671.417
3687 73672.304 71669.390
3688 73679.677 71679.914
3689 73688.441 71682.469
3690 73690.163 71678.804
3691 73693.768 71682.792
3692 73694.836 71679.521
3693 73696.019 71680.994
3694 73699.644 71683.192
3695 73703.815 71681.601
3696 73703.203 71694.871
3697 73715.622 71693.146
3698 73725.961 71696.094
3699 73735.278 71706.771
3700 73733.584 71701.335
3701 73744.733 71704.022
3702 73746.637 71712.876
3703 73751.475 71705.548
3704 73752.209 71711.851
3705 73760.484 71707.448
3706 73767.068 71721.109
3707 73769.116 71719.950
3708 73768.345 71718.624
3709 73766.079 71722.061
3710 73774.068 71719.237
3711 73774.179 71721.014
3712 73769.081 71720.808
3713 73779.589 71723.508
3714 73785.731 71724.367
3715 73793.973 71731.967
3716 73806.616 71741.831
3717 73805.108 71736.192
3718 73814.565 71744.514
3719 73818.518 71744.262
3720 73825.388 71747.687
3721 73835.078 71752.714
3722 73842.650 71761.479
3723 73850.380 71764.771
3724 73853.826 71767.175
3725 73863.388 71780.376
3726 73868.009 71775.480
3727 73864.466 71775.300
3728 73868.803 71775.448
3729 73873.216 71776.883
3730 73884.046 71780.276
3731 73894.014 71789.852
3732 73888.533 71780.566
3733 73901.882 71788.332
3734 73899.014 71791.236
3735 73907.506 71797.482
3736 73897.355 71797.823
3737 73907.643 71799.151
3738 73915.330 71799.616
3739 73929.209 71802.651
3740 73932.659 71802.455
3741 73941.303 71815.662
3742 73940.169 71818.414
3743 73940.146 71814.432
3744 73956.071 71810.444
3745 73954.378 71816.974
3746 73963.155 71827.966
3747 73974.267 71831.489
3748 73969.345 71827.105
3749 73977.182 71832.423
3750 73984.880 71838.916
3751 73988.771 71839.223
3752 73986.836 71844.673
3753 73997.128 71843.941
3754 73995.170 71840.999
3755 73985.572 71830.214
3756 73963.904 71826.508
3757 73919.978 71807.971
3758 73849.265 71771.278
3759 73786.346 71731.776
3760 73746.363 71706.558
3761 73715.453 71694.808
3762 73690.199 71679.845
3763 73667.030 71668.462
3764 73656.872 71661.752
3765 73660.620 71660.907
3766 73656.460 71659.740
3767 73666.508 71657.361
3768 73678.456 71668.483
3769 73683.009 71672.390
3770 73690.796 71675.155
3771 73697.238 71675.093
3772 73696.759 71677.453
3773 73691.376 71677.400
3774 73696.298 71678.252
3775 73701.773 71672.828
3776 73701.207 71679.248
3777 73704.946 71688.135
3778 73708.704 71691.239
3779 73721.898 71693.418
3780 73731.876 71701.039
3781 73733.458 71706.662
3782 73740.183 71701.279
3783 73748.047 71705.803
3784 73755.041 71707.728
3785 73759.992 71711.553
3786 73769.516 71718.385
3787 73774.076 71717.062
3788 73779.565 71727.668
3789 73784.992 71730.969
3790 73779.016 71729.345
3791 73775.833 71722.010
3792 73781.580 71722.840
3793 73779.062 71725.822
3794 73780.543 71725.349
3795 73791.546 71731.626
3796 73786.919 71733.038
3797 73793.321 71742.201
3798 73806.657 71743.771
3799 73811.621 71744.488
3800 73825.347 71761.203
3801 73829.493 71756.179
3802 73841.258 71763.144
3803 73839.859 71753.126
3804 73847.780 71764.855
3805 73861.467 71777.260
3806 73863.525 71769.169
3807 73875.700 71769.453
3808 73879.124 71777.166
3809 73877.958 71779.895
3810 73876.867 71784.271
3811 73886.785 71784.447
3812 73890.484 71780.601
3813 73895.006 71789.259
3814 73901.833 71789.112
3815 73910.727 71797.103
3816 73916.016 71799.722
3817 73923.954 71807.032
3818 73923.340 71806.804
3819 73932.893 71811.362
3820 73932.504 71811.415
3821 73930.986 71812.069
3822 73945.279 71822.976
3823 73950.994 71824.162
3824 73956.410 71823.797
3825 73960.896 71827.715
3826 73965.347 71831.084
3827 73971.330 71830.334
3828 73972.990 71830.583
3829 73975.822 71840.806
3830 73978.944 71844.538
3831 73995.456 71849.007
3832 73991.274 71840.566
3833 73996.038 71848.738
3834 73999.623 71856.345
3835 74004.562 71856.005
3836 74012.328 71856.992
3837 74009.733 71851.532
3838 73985.326 71843.717
3839 73945.650 71819.078
3840 73890.735 71789.188
3841 73827.788 71760.740
3842 73765.388 71731.756
3843 73733.139 71711.416
3844 73703.850 71688.857
3845 73688.701 71681.616
3846 73674.758 71681.737
3847 73671.182 71674.967
3848 73683.154 71682.683
3849 73688.158 71687.284
3850 73693.639 71684.418
3851 73702.782 71686.317
3852 73709.842 71687.360
3853 73713.147 71688.856
3854 73707.608 71693.021
3855 73719.417 71699.305
3856 73724.615 71701.471
3857 73728.419 71697.296
3858 73722.609 71692.347
3859 73736.304 71697.972
3860 73731.894 71706.905
3861 73745.190 71705.474
3862 73755.293 71716.413
3863 73750.819 71714.638
3864 73765.757 71716.783
3865 73774.450 71726.417
3866 73771.672 71733.803
3867 73778.697 71730.439
3868 73783.899 71726.358
3869 73793.916 71733.518
3870 73793.368 71731.424
3871 73791.980 71734.839
3872 73791.816 71729.493
3873 73782.265 71732.681
3874 73778.526 71727.813
3875 73789.163 71728.658
3876 73804.617 71742.073
3877 73802.943 71735.050
3878 73807.056 71742.828
3879 73817.074 71747.655
3880 73827.288 71751.019
3881 73832.414 71755.043
3882 73843.129 71759.082
3883 73846.393 71764.460
3884 73850.784 71767.499
3885 73860.623 71764.831
3886 73862.052 71775.211
3887 73873.305 71774.077
3888 73887.457 71786.902
3889 73887.580 71787.735
3890 73897.472 71788.182
3891 73901.952 71791.703
3892 73908.066 71794.591
3893 73903.303 71795.594
3894 73906.454 71793.877
3895 73911.527 71794.011
3896 73917.594 71797.133
3897 73925.129 71805.000
3898 73936.316 71809.484
3899 73941.227 71810.149
3900 73942.672 71809.147
3901 73942.496 71812.447
3902 73946.474 71812.431
3903 73950.815 71819.049
3904 73956.546 71817.109
3905 73950.488 71820.832
3906 73968.029 71833.115
3907 73977.684 71837.544
3908 73976.332 71837.099
3909 73985.375 71845.574
3910 73985.531 71841.079
3911 73983.890 71838.393
3912 73999.755 71844.730
3913 73990.953 71837.848
3914 73997.232 71840.691
3915 74009.351 71850.049
3916 74011.548 71847.830
3917 74002.829 71847.057
3918 73988.957 71841.854
3919 73950.689 71822.161
3920 73905.900 71797.846
3921 73844.089 71767.444
3922 73786.170 71725.392
3923 73736.585 71709.136
3924 73719.298 71699.957
3925 73705.757 71685.451
3926 73685.684 71675.517
3927 73692.842 71674.784
3928 73690.017 71674.933
3929 73694.785 71682.447
3930 73695.630 71678.852
3931 73700.854 71684.720
3932 73711.793 71692.341
3933 73719.025 71699.137
3934 73722.464 71697.890
3935 73728.315 71697.791
3936 73737.159 71696.006
3937 73737.714 71696.378
3938 73737.856 71700.226
3939 73738.677 71706.790
3940 73746.312 71702.619
3941 73751.174 71705.038
3942 73762.731 71712.113
3943 73766.050 71720.031
3944 73770.719 71716.366
3945 73778.811 71721.887
3946 73787.164 71721.816
3947 73784.523 71727.613
3948 73779.002 71722.046
3949 73791.385 71725.121
3950 73793.521 71731.247
3951 73795.435 71732.748
3952 73797.144 71733.874
3953 73796.858 71736.326
3954 73796.361 71729.622
3955 73797.921 71729.530
3956 73809.406 71737.394
3957 73815.841 71738.731
3958 73822.284 71738.440
3959 73831.267 71748.782
3960 73836.418 71759.325
3961 73842.601 71757.195
3962 73850.209 71757.333
3963 73858.267 71764.710
3964 73866.001 71768.774
3965 73868.307 71768.976
3966 73882.406 71773.009
3967 73883.377 71768.711
3968 73892.239 71776.702
3969 73894.017 71786.191
3970 73911.073 71788.108
3971 73907.999 71790.420
3972 73916.840 71794.708
3973 73912.396 71788.502
3974 73913.504 71785.521
3975 73920.520 71783.489
3976 73926.652 71799.678
3977 73927.326 71810.791
3978 73942.124 71808.781
3979 73946.757 71813.352
3980 73951.279 71821.406
3981 73949.378 71814.709
3982 73951.603 71814.797
3983 73960.020 71818.263
3984 73966.570 71820.876
3985 73959.043 71825.465
3986 73972.014 71825.144
3987 73989.860 71831.889
3988 73991.225 71835.215
3989 73994.013 71838.190
3990 73996.287 71838.589
3991 74007.843 71842.291
3992 74005.938 71844.146
3993 74008.994 71850.323
3994 74014.826 71846.448
3995 74007.600 71845.959
3996 73987.544 71844.289
3997 73943.936 71822.806
3998 73892.003 71789.729
3999 73818.939 71744.923
4000 73765.436 71720.313
4001 73729.127 71695.793
4002 73705.439 71678.849
4003 73691.653 71670.616
4004 73678.122 71671.165
4005 73683.395 71674.572
4006 73685.524 71677.912
4007 73691.948 71678.954
4008 73694.125 71680.449
4009 73691.719 71674.841
4010 73704.159 71683.776
4011 73722.088 71689.499
4012 73716.339 71684.773
4013 73707.293 71685.540
4014 73713.879 71689.427
4015 73722.238 71688.108
4016 73723.116 71694.374
4017 73725.721 71692.964
4018 73732.111 71687.986
4019 73733.561 71694.765
4020 73746.711 71703.773
4021 73757.042 71710.045
4022 73765.569 71713.582
4023 73771.909 71716.698
4024 73776.986 71713.462
4025 73776.387 71717.710
4026 73785.736 71718.764
4027 73787.364 71726.073
4028 73792.002 71721.910
4029 73795.094 71730.336
4030 73791.482 71731.030
4031 73793.713 71732.754
4032 73798.696 71728.559
4033 73799.389 71729.125
4034 73797.155 71729.669
4035 73806.939 71735.814
4036 73805.385 71734.620
4037 73814.873 71743.329
4038 73820.728 71746.164
4039 73832.882 71746.336
4040 73844.893 71755.527
4041 73853.656 71760.215
4042 73863.431 71763.282
4043 73864.160 71770.664
4044 73864.239 71760.664
4045 73876.778 71764.632
4046 73875.263 71770.349
4047 73883.926 71778.440
4048 73897.127 71771.636
4049 73897.297 71783.006
4050 73901.875 71786.862
4051 73906.775 71795.532
4052 73917.830 71786.465
4053 73912.865 71797.610
4054 73906.979 71791.976
4055 73924.436 71791.551
4056 73927.407 71801.904
4057 73931.062 71799.771
4058 73933.120 71808.667
4059 73949.492 71818.318
4060 73960.030 71821.540
4061 73961.903 71821.258
4062 73960.194 71818.821
4063 73964.756 71824.023
4064 73974.185 71822.436
4065 73978.584 71823.500
4066 73972.568 71825.927
4067 73983.419 71829.297
4068 73991.497 71833.542
4069 73989.927 71835.878
4070 74000.888 71837.451
4071 74006.409 71846.798
4072 74009.949 71844.759
4073 74013.821 71849.560
4074 74001.139 71844.691
4075 73985.517 71828.286
4076 73952.381 71819.216
4077 73901.223 71780.476
4078 73840.154 71754.097
4079 73782.984 71723.586
4080 73752.403 71703.882
4081 73712.445 71690.791
4082 73698.194 71682.888
4083 73683.675 71674.566
4084 73677.684 71660.048
4085 73680.380 71667.527
4086 73682.736 71675.538
4087 73693.081 71676.983
4088 73698.023 71675.582
4089 73710.999 71684.572
4090 73709.175 71691.590
4091 73719.093 71687.035
4092 73723.377 71688.026
4093 73724.016 71688.298
4094 73724.492 71691.201
4095 73724.932 71692.907
4096 73731.555 71690.156
4097 73736.072 71697.074
4098 73737.093 71697.655
4099 73743.311 71704.931
4100 73755.276 71701.907
4101 73763.862 71709.480
4102 73769.644 71713.672
4103 73778.106 71717.276
4104 73783.043 71727.640
4105 73777.687 71717.369
4106 73786.353 71721.449
4107 73786.443 71725.137
4108 73786.213 71723.618
4109 73786.090 71718.292
4110 73787.652 71717.978
4111 73788.771 71715.260
4112 73796.701 71716.938
4113 73801.612 71731.971
4114 73801.257 71730.269
4115 73805.208 71736.521
4116 73818.312 71740.253
4117 73830.535 71745.361
4118 73822.434 71745.316
4119 73842.089 71754.832
4120 73850.853 71753.584
4121 73852.608 71752.947
4122 73859.052 71757.075
4123 73860.776 71762.678
4124 73863.875 71757.217
4125 73879.780 71764.199
4126 73883.539 71780.816
4127 73892.665 71783.687
4128 73893.149 71780.046
4129 73901.142 71786.969
4130 73910.959 71787.629
4131 73912.272 71791.180
4132 73916.326 71799.522
4133 73921.663 71802.773
4134 73930.808 71801.313
4135 73922.904 71812.566
4136 73932.365 71810.152
4137 73935.357 71805.453
4138 73933.349 71811.512
4139 73943.871 71806.822
4140 73944.908 71812.768
4141 73961.036 71818.020
4142 73964.635 71826.146
4143 73967.150 71827.612
4144 73969.017 71830.262
4145 73963.943 71829.786
4146 73967.988 71827.473
4147 73981.159 71835.346
4148 73986.400 71830.220
4149 73990.133 71838.091
4150 73997.443 71842.195
4151 73995.416 71845.043
4152 73992.090 71842.939
4153 73983.428 71838.437
4154 73940.222 71818.895
4155 73884.832 71794.201
4156 73825.878 71750.943
4157 73780.428 71724.798
4158 73739.805 71706.165
4159 73713.790 71691.922
4160 73704.476 71687.240
4161 73696.149 71683.988
4162 73687.842 71680.731
4163 73691.646 71682.735
4164 73686.278 71682.333
4165 73697.343 71684.469
4166 73696.302 71688.000
4167 73707.020 71690.588
4168 73716.685 71691.593
4169 73722.743 71699.476
4170 73733.176 71701.907
4171 73731.490 71696.914
4172 73734.328 71699.402
4173 73730.583 71701.375
4174 73738.672 71699.101
4175 73740.254 71706.788
4176 73751.827 71706.835
4177 73760.852 71710.336
4178 73768.555 71725.817
4179 73777.865 71723.885
4180 73786.462 71728.189
4181 73782.900 71731.495
4182 73783.207 71722.364
4183 73786.626 71725.229
4184 73784.263 71721.015
4185 73779.858 71716.304
4186 73786.190 71714.246
4187 73788.326 71725.980
4188 73798.066 71732.268
4189 73796.780 71733.879
4190 73794.935 71726.325
4191 73794.270 71724.295
4192 73796.349 71734.447
4193 73800.951 71734.204
4194 73813.431 71737.986
4195 73814.597 71742.229
4196 73824.384 71753.535
4197 73833.926 71754.074
4198 73842.301 71757.447
4199 73847.448 71758.715
4200 73851.726 71763.379
4201 73855.520 71761.158
4202 73867.470 71764.435
4203 73878.627 71770.815
4204 73873.747 71771.695
4205 73876.346 71773.143
4206 73880.355 71774.125
4207 73887.688 71780.795
4208 73900.760 71789.450
4209 73899.195 71785.686
4210 73900.180 71783.506
4211 73902.356 71790.060
4212 73903.076 71794.887
4213 73916.547 71793.968
4214 73924.832 71794.047
4215 73922.620 71800.223
4216 73931.462 71800.670
4217 73929.943 71808.148
4218 73938.873 71800.829
4219 73934.298 71811.107
4220 73947.922 71814.203
4221 73947.577 71810.407
4222 73956.185 71816.290
4223 73964.163 71830.982
4224 73971.458 71823.313
4225 73965.007 71825.428
4226 73972.907 71829.534
4227 73967.394 71819.655
4228 73954.953 71815.935
4229 73919.832 71792.476
4230 73869.471 71769.793
4231 73807.916 71732.795
4232 73759.743 71707.841
4233 73724.745 71691.896
4234 73697.688 71674.028
4235 73680.622 71668.575
4236 73662.056 71664.092
4237 73662.911 71659.433
4238 73654.960 71655.177
4239 73665.435 71657.208
4240 73668.123 71663.081
4241 73678.627 71672.159
4242 73685.593 71666.651
4243 73679.003 71676.487
4244 73689.464 71671.824
4245 73694.832 71671.826
4246 73702.105 71672.472
4247 73700.485 71671.674
4248 73700.865 71675.918
4249 73708.372 71676.425
4250 73709.753 71683.620
4251 73721.308 71688.645
4252 73726.357 71695.033
4253 73734.959 71699.542
4254 73736.531 71700.440
4255 73744.546 71696.405
4256 73741.862 71698.508
4257 73752.927 71703.291
4258 73762.280 71706.099
4259 73761.886 71716.960
4260 73765.304 71712.983
4261 73762.704 71707.202
4262 73767.711 71710.335
4263 73771.136 71709.045
4264 73763.655 71715.845
4265 73761.857 71711.305
4266 73766.546 71711.843
4267 73783.087 71714.104
4268 73800.041 71729.470
4269 73798.272 71730.375
4270 73801.292 71733.105
4271 73808.038 71731.985
4272 73814.723 71734.830
4273 73816.444 71735.877
4274 73827.344 71741.391
4275 73826.807 71732.472
4276 73832.183 71743.033
4277 73839.826 71751.959
4278 73854.058 71761.892
4279 73855.649 71758.267
4280 73850.655 71758.892
4281 73852.324 71761.574
4282 73863.092 71767.167
4283 73861.387 71763.122
4284 73873.113 71766.029
4285 73876.633 71766.685
4286 73871.609 71788.255
4287 73882.331 71780.559
4288 73893.532 71778.605
4289 73893.266 71783.643
4290 73900.393 71783.644
4291 73905.652 71785.473
4292 73917.541 71789.561
4293 73914.644 71797.256
4294 73918.210 71797.676
4295 73913.401 71788.775
4296 73923.510 71797.207
4297 73928.575 71803.316
4298 73936.624 71805.931
4299 73942.596 71814.989
4300 73942.109 71813.043
4301 73948.963 71813.700
4302 73958.893 71822.939
4303 73962.082 71818.680
4304 73959.934 71815.450
4305 73947.543 71808.106
4306 73924.826 71796.287
4307 73875.974 71769.776
4308 73819.547 71738.974
4309 73759.013 71705.329
4310 73719.014 71689.830
4311 73693.146 71678.751
4312 73671.872 71665.180
4313 73658.267 71658.026
4314 73649.152 71652.439
4315 73653.799 71653.199
4316 73646.455 71647.108
4317 73649.744 71650.711
4318 73652.680 71654.404
4319 73658.880 71650.081
4320 73663.193 71654.456
4321 73670.559 71657.176
4322 73669.457 71658.638
4323 73674.404 71662.587
4324 73670.615 71664.336
4325 73669.602 71659.013
4326 73661.556 71658.422
4327 73657.945 71651.645
4328 73667.619 71656.129
4329 73682.153 71661.242
4330 73693.801 71669.808
4331 73699.244 71683.186
4332 73708.602 71679.821
4333 73717.097 71677.229
4334 73718.309 71685.096
4335 73718.041 71677.740
4336 73716.409 71680.287
4337 73724.862 71682.659
4338 73724.904 71684.464
4339 73728.499 71692.532
4340 73731.017 71691.478
4341 73731.490 71691.862
4342 73735.900 71694.088
4343 73737.519 71693.781
4344 73738.213 71686.455
4345 73736.851 71693.877
4346 73734.971 71687.970
4347 73745.747 71693.629
4348 73753.961 71698.668
4349 73766.218 71703.411
4350 73771.253 71710.955
4351 73783.999 71714.020
4352 73792.593 71720.981
4353 73792.999 71722.231
4354 73801.368 71727.043
4355 73794.983 71725.600
4356 73801.505 71723.268
4357 73811.544 71729.337
4358 73813.229 71736.152
4359 73824.946 71741.010
4360 73832.664 71748.734
4361 73832.302 71741.851
4362 73831.352 71747.363
4363 73840.946 71755.271
4364 73842.268 71753.872
4365 73847.303 71751.780
4366 73855.832 71762.581
4367 73856.777 71762.837
4368 73871.748 71769.535
4369 73874.211 71771.455
4370 73874.352 71769.388
4371 73874.166 71775.904
4372 73881.470 71770.816
4373 73885.330 71772.096
4374 73888.900 71785.845
4375 73894.758 71785.187
4376 73906.811 71794.274
4377 73909.110 71783.478
4378 73913.655 71794.895
4379 73919.197 71798.313
4380 73917.638 71795.531
4381 73925.002 71796.552
4382 73946.588 71800.316
4383 73935.841 71809.107
4384 73938.533 71811.333
4385 73938.992 71810.053
4386 73919.758 71797.984
4387 73871.272 71772.501
4388 73818.812 71746.214
4389 73767.299 71712.977
4390 73716.828 71686.974
4391 73686.246 71670.522
4392 73664.354 71665.771
4393 73649.319 71653.275
4394 73642.960 71651.441
4395 73645.569 71649.167
4396 73636.175 71646.396
4397 73637.451 71644.485
4398 73644.002 71645.751
4399 73651.556 71651.706
4400 73652.767 71655.907
4401 73656.018 71656.503
4402 73664.483 71664.066
4403 73665.537 71665.056
4404 73670.358 71660.328
4405 73669.985 71665.630
4406 73665.694 71657.268
4407 73665.162 71653.979
4408 73671.809 71658.232
4409 73682.306 71662.179
4410 73689.973 71667.962
4411 73702.845 71675.104
4412 73710.599 71678.726
4413 73720.925 71688.040
4414 73719.456 71683.239
4415 73728.408 71681.635
4416 73714.823 71681.078
4417 73719.067 71683.814
4418 73720.845 71684.463
4419 73729.140 71688.352
4420 73730.351 71691.640
4421 73735.827 71694.356
4422 73743.913 71695.153
4423 73737.805 71692.966
4424 73738.869 71686.881
4425 73742.397 71689.419
4426 73740.850 71690.886
4427 73743.499 71690.841
4428 73753.456 71700.982
4429 73774.078 71708.720
4430 73775.535 71715.180
4431 73786.983 71726.653
4432 73782.713 71719.360
4433 73787.484 71719.332
4434 73798.322 71724.942
4435 73801.479 71728.856
4436 73808.510 71729.725
4437 73807.710 71731.304
4438 73821.010 71742.032
4439 73831.404 71739.498
4440 73834.765 71744.910
4441 73829.720 71749.233
4442 73842.070 71742.257
4443 73842.852 71754.269
4444 73845.186 71746.983
4445 73847.198 71744.686
4446 73845.978 71753.040
4447 73850.426 71759.173
4448 73863.184 71756.909
4449 73863.267 71758.406
4450 73867.654 71775.004
4451 73872.694 71772.922
4452 73873.284 71761.288
4453 73880.453 71772.398
4454 73880.694 71772.370
4455 73892.008 71774.966
4456 73900.668 71783.121
4457 73906.105 71786.552
4458 73910.204 71793.637
4459 73919.628 71790.257
4460 73926.756 71794.134
4461 73924.486 71795.535
4462 73940.577 71800.319
4463 73943.398 71810.700
4464 73947.731 71807.629
4465 73944.908 71807.054
4466 73922.214 71804.321
4467 73886.349 71783.602
4468 73833.473 71749.791
4469 73782.471 71716.768
4470 73735.114 71691.864
4471 73697.327 71672.730
4472 73678.614 71656.155
4473 73657.348 71646.758
4474 73640.869 71643.946
4475 73639.612 71644.019
4476 73633.911 71638.256
4477 73630.487 71642.775
4478 73638.446 71642.888
4479 73647.958 71653.276
4480 73654.719 71654.838
4481 73660.410 71651.745
4482 73666.656 71662.671
4483 73674.928 71662.644
4484 73671.829 71657.598
4485 73677.140 71653.190
4486 73667.921 71660.328
4487 73664.472 71659.623
4488 73674.370 71658.274
4489 73691.655 71668.847
4490 73698.260 71674.720
4491 73709.454 71682.233
4492 73726.777 71690.250
4493 73728.282 71690.381
4494 73730.194 71687.733
4495 73739.922 71697.531
4496 73730.767 71694.053
4497 73720.170 71687.197
4498 73723.068 71679.027
4499 73732.049 71684.432
4500 73738.303 71681.762
4501 73732.769 71692.460
4502 73732.665 71689.102
4503 73736.334 71689.398
4504 73736.002 71690.512
4505 73739.624 71691.526
4506 73741.662 71697.072
4507 73742.793 71695.084
4508 73750.568 71694.988
4509 73769.106 71711.206
4510 73773.672 71716.092
4511 73780.339 71718.358
4512 73790.193 71726.538
4513 73805.344 71727.542
4514 73807.414 71726.404
4515 73812.383 71724.473
4516 73813.580 71736.785
4517 73814.844 71733.477
4518 73822.522 71736.116
4519 73826.858 71741.311
4520 73825.068 71740.978
4521 73842.531 71750.489
4522 73849.528 71749.997
4523 73843.620 71746.646
4524 73842.460 71751.636
4525 73857.173 71750.093
4526 73860.122 71754.790
4527 73859.224 71763.749
4528 73866.562 71760.358
4529 73878.273 71758.691
4530 73884.181 71765.500
4531 73879.642 71775.710
4532 73883.542 71774.239
4533 73884.755 71772.422
4534 73887.325 71771.704
4535 73903.285 71782.833
4536 73910.048 71788.836
4537 73907.242 71785.085
4538 73911.280 71780.795
4539 73919.480 71787.110
4540 73934.447 71797.990
4541 73931.803 71802.262
4542 73928.369 71799.712
4543 73936.598 71793.984
4544 73916.841 71787.736
4545 73887.483 71767.960
4546 73833.650 71737.912
4547 73767.268 71710.512
4548 73717.698 71684.849
4549 73682.530 71658.962
4550 73658.894 71646.389
4551 73633.360 71632.386
4552 73628.415 71622.676
4553 73618.845 71624.460
4554 73620.801 71625.644
4555 73617.824 71628.989
4556 73625.037 71642.139
4557 73631.971 71623.399
4558 73631.228 71628.492
4559 73645.008 71637.434
4560 73642.181 71637.309
4561 73651.663 71634.915
4562 73658.528 71634.371
4563 73654.915 71639.381
4564 73654.163 71644.781
4565 73655.347 71643.344
4566 73660.963 71646.373
4567 73660.527 71639.063
4568 73666.667 71646.393
4569 73675.987 71653.772
4570 73694.544 71661.093
4571 73699.496 71664.100
4572 73704.899 71660.757
4573 73717.810 71670.780
4574 73722.216 71673.543
4575 73730.841 71673.896
4576 73731.351 71675.077
4577 73723.128 71679.877
4578 73726.320 71676.016
4579 73725.381 71677.110
4580 73729.006 71685.954
4581 73733.742 71683.997
4582 73736.710 71685.717
4583 73741.289 71686.817
4584 73746.666 71689.875
4585 73753.996 71697.126
4586 73754.439 71696.256
4587 73757.163 71689.171
4588 73761.654 71693.816
4589 73772.389 71701.442
4590 73788.878 71710.328
4591 73802.816 71717.862
4592 73801.274 71722.279
4593 73807.050 71732.677
4594 73806.233 71721.335
4595 73819.868 71728.717
4596 73816.760 71734.783
4597 73821.279 71739.464
4598 73829.339 71739.013
4599 73837.985 71746.116
4600 73838.475 71735.352
4601 73845.880 71746.674
4602 73852.672 71748.381
4603 73855.497 71757.066
4604 73863.523 71750.254
4605 73862.693 71753.914
4606 73864.608 71754.202
4607 73876.232 71756.399
4608 73878.814 71761.892
4609 73881.579 71762.506
4610 73889.596 71767.563
4611 73892.787 71777.974
4612 73899.113 71781.143
4613 73906.940 71779.617
4614 73903.547 71780.801
4615 73910.132 71784.315
4616 73914.739 71782.877
4617 73920.049 71785.500
4618 73927.039 71791.008
4619 73932.592 71792.005
4620 73947.207 71802.306
4621 73954.393 71812.976
4622 73955.548 71811.185
4623 73952.257 71803.010
4624 73934.743 71800.004
4625 73911.053 71785.468
4626 73862.748 71758.909
4627 73798.883 71732.744
4628 73747.458 71694.310
4629 73692.962 71672.463
4630 73662.081 71658.550
4631 73641.412 71638.171
4632 73629.423 71632.206
4633 73619.660 71625.815
4634 73627.895 71633.406
4635 73630.307 71634.409
4636 73638.775 71633.082
4637 73621.317 71632.855
4638 73627.214 71634.652
4639 73637.642 71639.410
4640 73648.714 71646.609
4641 73647.532 71649.471
4642 73647.769 71646.956
4643 73656.476 71645.919
4644 73659.647 71648.869
4645 73665.063 71656.563
4646 73669.357 71656.464
4647 73663.870 71654.908
4648 73665.096 71655.076
4649 73678.885 71658.380
4650 73688.607 71667.105
4651 73699.082 71666.968
4652 73705.148 71673.692
4653 73718.947 71678.046
4654 73723.924 71687.255
4655 73724.873 71684.405
4656 73735.653 71691.467
4657 73722.262 71685.839
4658 73723.263 71682.547
4659 73726.635 71684.884
4660 73728.229 71683.007
4661 73723.120 71688.150
4662 73731.892 71691.764
4663 73739.633 71700.880
4664 73742.216 71696.643
4665 73749.209 71698.988
4666 73754.911 71702.664
4667 73752.447 71702.347
4668 73762.149 71708.239
4669 73773.299 71706.903
4670 73777.308 71712.768
4671 73788.906 71719.720
4672 73799.336 71733.308
4673 73805.480 71731.052
4674 73809.189 71727.880
4675 73809.035 71743.327
4676 73816.032 71743.729
4677 73821.416 71742.742
4678 73826.493 71735.947
4679 73823.437 71739.852
4680 73832.003 71744.183
4681 73848.925 71756.504
4682 73847.704 71760.136
4683 73852.529 71758.787
4684 73854.787 71756.844
4685 73867.422 71762.674
4686 73861.828 71772.608
4687 73869.218 71772.399
4688 73870.413 71778.184
4689 73883.831 71780.349
4690 73887.781 71782.468
4691 73893.209 71784.735
4692 73888.954 71786.471
4693 73889.948 71784.440
4694 73899.298 71782.706
4695 73900.031 71791.702
4696 73905.814 71784.898
4697 73909.559 71787.237
4698 73914.023 71797.544
4699 73923.318 71796.920
4700 73927.239 71805.091
4701 73941.346 71806.479
4702 73940.413 71803.779
4703 73944.205 71806.443
4704 73942.496 71802.973
4705 73924.089 71799.872
4706 73898.985 71781.304
4707 73851.764 71760.826
4708 73781.662 71724.170
4709 73727.861 71690.070
4710 73693.428 71673.026
4711 73660.883 71657.841
4712 73640.956 71652.506
4713 73630.412 71646.469
4714 73622.219 71632.905
4715 73620.617 71637.175
4716 73619.517 71635.299
4717 73624.235 71639.683
4718 73635.646 71649.737
4719 73639.139 71640.750
4720 73638.614 71644.263
4721 73643.053 71651.981
4722 73652.907 71654.135
4723 73651.449 71656.497
4724 73658.987 71656.531
4725 73662.214 71654.666
4726 73667.251 71660.117
4727 73673.939 71663.426
4728 73670.385 71663.945
4729 73677.515 71657.922
4730 73690.438 71664.248
4731 73691.132 71672.587
4732 73700.292 71671.655
4733 73705.132 71677.976
4734 73703.123 71678.205
4735 73713.534 71678.213
4736 73720.225 71689.837
4737 73715.033 71687.205
4738 73720.982 71685.840
4739 73720.919 71688.241
4740 73716.647 71687.028
4741 73727.707 71685.999
4742 73735.847 71690.271
4743 73731.222 71693.587
4744 73729.234 71695.409
4745 73735.327 71693.856
4746 73738.536 71697.489
4747 73739.972 71707.703
4748 73739.361 71702.920
4749 73752.750 71710.572
4750 73761.004 71720.505
4751 73769.031 71719.487
4752 73776.479 71726.140
4753 73784.671 71728.690
4754 73790.451 71730.703
4755 73799.590 71732.529
4756 73799.329 71742.720
4757 73796.754 71737.544
4758 73796.620 71732.949
4759 73793.715 71728.729
4760 73793.236 71727.824
4761 73801.548 71728.629
4762 73807.336 71728.403
4763 73813.374 71731.393
4764 73816.613 71734.830
4765 73821.974 71742.398
4766 73819.133 71742.606
4767 73828.679 71739.290
4768 73827.727 71735.343
4769 73823.555 71737.954
4770 73832.791 71736.676
4771 73846.617 71744.193
4772 73846.854 71740.793
4773 73843.460 71739.205
4774 73849.540 71743.734
4775 73860.346 71749.490
4776 73849.455 71752.810
4777 73860.644 71746.260
4778 73865.452 71757.938
4779 73876.290 71757.127
4780 73885.357 71761.454
4781 73886.759 71767.399
4782 73865.717 71753.575
4783 73823.627 71729.051
4784 73768.393 71698.759
4785 73706.583 71669.734
4786 73661.010 71646.127
4787 73633.328 71621.649
4788 73606.331 71622.186
4789 73584.201 71610.990
4790 73574.336 71604.489
4791 73583.227 71609.386
4792 73578.334 71608.380
4793 73569.760 71607.226
4794 73578.717 71613.368
4795 73587.098 71617.443
4796 73593.388 71611.626
4797 73599.517 71624.510
4798 73604.466 71622.136
4799 73608.424 71618.488
4800 73606.198 71614.888
4801 73607.778 71617.195
4802 73608.494 71614.894
4803 73612.508 71622.069
4804 73609.570 71618.484
4805 73618.065 71620.603
4806 73630.334 71619.254
4807 73638.472 71619.915
4808 73646.286 71632.441
4809 73650.494 71627.326
4810 73655.920 71635.834
4811 73657.209 71634.941
4812 73662.103 71635.622
4813 73662.037 71640.479
4814 73661.893 71634.964
4815 73667.925 71621.049
4816 73659.263 71633.882
4817 73652.358 71627.495
4818 73671.893 71630.388
4819 73657.014 71629.270
4820 73664.812 71623.517
4821 73658.477 71623.932
4822 73663.888 71627.968
4823 73663.572 71624.318
4824 73676.617 71630.684
4825 73684.522 71638.993
4826 73691.292 71645.798
4827 73695.853 71638.253
4828 73694.671 71642.303
4829 73697.068 71645.518
4830 73709.794 71642.112
4831 73708.630 71645.648
4832 73719.928 71653.489
4833 73734.212 71658.170
4834 73739.275 71658.824
4835 73736.435 71666.302
4836 73741.962 71667.584
4837 73746.828 71675.490
4838 73750.002 71673.928
4839 73754.037 71673.359
4840 73755.422 71683.659
