# s1_sit de 30 s. Gerado por analise.fonte_falsa; não editar à mão.
n ir vermelho
0 145.635 78.450
1 143.739 77.565
2 139.305 75.332
3 132.038 71.594
4 121.723 66.242
5 108.280 59.232
6 91.802 50.614
7 72.590 40.554
8 51.156 29.327
9 28.196 17.303
10 4.535 4.920
11 -18.960 -7.357
12 -41.458 -19.084
13 -62.242 -29.880
14 -80.747 -39.447
15 -96.576 -47.579
16 -109.503 -54.165
17 -119.462 -59.177
18 -126.528 -62.664
19 -130.900 -64.736
20 -132.861 -65.552
21 -132.747 -65.305
22 -130.915 -64.199
23 -127.715 -62.440
24 -123.478 -60.215
25 -118.497 -57.681
26 -113.016 -54.971
27 -107.240 -52.192
28 -101.337 -49.425
29 -95.445 -46.739
30 -89.687 -44.185
31 -84.168 -41.803
32 -78.981 -39.619
33 -74.198 -37.650
34 -69.864 -35.905
35 -66.001 -34.383
36 -62.598 -33.077
37 -59.616 -31.970
38 -56.991 -31.033
39 -54.638 -30.225
40 -52.450 -29.490
41 -50.300 -28.765
42 -48.050 -27.973
43 -45.565 -27.031
44 -42.731 -25.863
45 -39.462 -24.412
46 -35.713 -22.649
47 -31.477 -20.573
48 -26.784 -18.203
49 -21.689 -15.579
50 -16.261 -12.746
51 -10.574 -9.750
52 -4.710 -6.635
53 1.248 -3.445
54 7.224 -0.222
55 13.149 2.991
56 18.970 6.153
57 24.643 9.234
58 30.142 12.212
59 35.463 15.083
60 40.630 17.859
61 45.694 20.572
62 50.717 23.259
63 55.756 25.953
64 60.864 28.686
65 66.091 31.484
66 71.484 34.375
67 77.086 37.379
68 82.926 40.507
69 89.012 43.759
70 95.326 47.127
71 101.820 50.593
72 108.408 54.119
73 114.966 57.645
74 121.331 61.085
75 127.309 64.335
76 132.676 67.271
77 137.173 69.755
78 140.510 71.634
79 142.374 72.747
80 142.441 72.924
81 140.394 71.992
82 135.935 69.795
83 128.805 66.200
84 118.810 61.117
85 105.858 54.510
86 89.997 46.414
87 71.460 36.956
88 50.693 26.365
89 28.352 14.966
90 5.244 3.160
91 -17.758 -8.619
92 -39.814 -19.943
93 -60.185 -30.437
94 -78.290 -39.803
95 -93.723 -47.830
96 -106.249 -54.392
97 -115.787 -59.438
98 -122.391 -62.983
99 -126.227 -65.106
100 -127.558 -65.934
101 -126.716 -65.628
102 -124.069 -64.371
103 -119.994 -62.358
104 -114.862 -59.788
105 -109.011 -56.851
106 -102.734 -53.718
107 -96.279 -50.534
108 -89.848 -47.408
109 -83.607 -44.422
110 -77.686 -41.638
111 -72.179 -39.104
112 -67.154 -36.853
113 -62.653 -34.901
114 -58.684 -33.243
115 -55.222 -31.847
116 -52.210 -30.662
117 -49.568 -29.619
118 -47.200 -28.649
119 -45.003 -27.686
120 -42.868 -26.672
121 -40.686 -25.558
122 -38.358 -24.294
123 -35.795 -22.837
124 -32.924 -21.141
125 -29.696 -19.175
126 -26.089 -16.922
127 -22.102 -14.386
128 -17.754 -11.585
129 -13.076 -8.550
130 -8.117 -5.325
131 -2.934 -1.963
132 2.409 1.473
133 7.848 4.927
134 13.325 8.351
135 18.797 11.709
136 24.239 14.981
137 29.646 18.163
138 35.033 21.265
139 40.431 24.298
140 45.877 27.283
141 51.416 30.246
142 57.094 33.223
143 62.957 36.251
144 69.038 39.357
145 75.348 42.558
146 81.876 45.850
147 88.588 49.212
148 95.429 52.609
149 102.320 55.994
150 109.158 59.315
151 115.809 62.514
152 122.102 65.527
153 127.823 68.270
154 132.713 70.632
155 136.459 72.467
156 138.719 73.600
157 139.133 73.841
158 137.350 72.995
159 133.047 70.877
160 125.954 67.331
161 115.883 62.252
162 102.768 55.597
163 86.694 47.399
164 67.923 37.781
165 46.905 26.964
166 24.272 15.261
167 0.792 3.051
168 -22.707 -9.242
169 -45.412 -21.190
170 -66.593 -32.398
171 -85.648 -42.536
172 -102.128 -51.353
173 -115.747 -58.687
174 -126.385 -64.465
175 -134.072 -68.701
176 -138.963 -71.476
177 -141.311 -72.924
178 -141.428 -73.205
179 -139.655 -72.493
180 -136.336 -70.960
181 -131.794 -68.770
182 -126.322 -66.068
183 -120.179 -62.986
184 -113.590 -59.640
185 -106.751 -56.137
186 -99.832 -52.570
187 -92.973 -49.021
188 -86.289 -45.555
189 -79.877 -42.219
190 -73.814 -39.046
191 -68.155 -36.056
192 -62.935 -33.266
193 -58.169 -30.685
194 -53.847 -28.323
195 -49.938 -26.184
196 -46.386 -24.263
197 -43.113 -22.532
198 -40.020 -20.944
199 -36.999 -19.433
200 -33.940 -17.932
201 -30.745 -16.378
202 -27.327 -14.715
203 -23.617 -12.908
204 -19.569 -10.935
205 -15.172 -8.796
206 -10.445 -6.501
207 -5.430 -4.075
208 -0.186 -1.549
209 5.219 1.042
210 10.712 3.667
211 16.222 6.302
212 21.682 8.926
213 27.042 11.524
214 32.274 14.090
215 37.374 16.627
216 42.355 19.152
217 47.242 21.688
218 52.069 24.263
219 56.880 26.905
220 61.725 29.633
221 66.659 32.466
222 71.741 35.421
223 77.031 38.515
224 82.579 41.759
225 88.412 45.155
226 94.538 48.695
227 100.938 52.360
228 107.566 56.115
229 114.341 59.911
230 121.146 63.682
231 127.830 67.354
232 134.217 70.840
233 140.105 74.042
234 145.258 76.839
235 149.394 79.089
236 152.187 80.626
237 153.271 81.263
238 152.265 80.805
239 148.795 79.062
240 142.530 75.864
241 133.214 71.078
242 120.709 64.629
243 105.030 56.524
244 86.373 46.869
245 65.135 35.879
246 41.911 23.868
247 17.469 11.224
248 -7.324 -1.615
249 -31.591 -14.208
250 -54.530 -26.144
251 -75.468 -37.070
252 -93.896 -46.714
253 -109.482 -54.900
254 -122.071 -61.551
255 -131.668 -66.678
256 -138.413 -70.366
257 -142.541 -72.747
258 -144.352 -73.980
259 -144.176 -74.232
260 -142.342 -73.665
261 -139.172 -72.434
262 -134.961 -70.675
263 -129.977 -68.507
264 -124.458 -66.032
265 -118.611 -63.347
266 -112.619 -60.546
267 -106.642 -57.714
268 -100.811 -54.925
269 -95.224 -52.238
270 -89.953 -49.701
271 -85.045 -47.344
272 -80.521 -45.182
273 -76.374 -43.213
274 -72.580 -41.425
275 -69.098 -39.799
276 -65.879 -38.305
277 -62.858 -36.901
278 -59.956 -35.529
279 -57.083 -34.116
280 -54.140 -32.585
281 -51.034 -30.867
282 -47.678 -28.912
283 -44.005 -26.689
284 -39.976 -24.192
285 -35.581 -21.438
286 -30.837 -18.459
287 -25.782 -15.296
288 -20.468 -11.993
289 -14.949 -8.599
290 -9.286 -5.167
291 -3.540 -1.752
292 2.231 1.603
293 7.968 4.862
294 13.622 7.999
295 19.150 11.002
296 24.518 13.865
297 29.703 16.596
298 34.699 19.202
299 39.515 21.695
300 44.168 24.092
301 48.693 26.425
302 53.142 28.732
303 57.589 31.056
304 62.114 33.439
305 66.792 35.917
306 71.685 38.520
307 76.844 41.271
308 82.303 44.181
309 88.079 47.255
310 94.167 50.485
311 100.546 53.860
312 107.182 57.364
313 114.016 60.971
314 120.962 64.642
315 127.906 68.317
316 134.694 71.918
317 141.134 75.350
318 146.988 78.500
319 151.970 81.230
320 155.755 83.380
321 157.992 84.775
322 158.319 85.218
323 156.379 84.509
324 151.836 82.454
325 144.398 78.882
326 133.843 73.659
327 120.057 66.708
328 103.073 58.033
329 83.116 47.741
330 60.630 36.059
331 36.275 23.335
332 10.883 10.017
333 -14.624 -3.392
334 -39.339 -16.397
335 -62.455 -28.559
336 -83.323 -39.533
337 -101.471 -49.071
338 -116.607 -57.029
339 -128.607 -63.359
340 -137.498 -68.090
341 -143.430 -71.313
342 -146.648 -73.163
343 -147.467 -73.807
344 -146.240 -73.430
345 -143.337 -72.224
346 -139.120 -70.373
347 -133.917 -68.046
348 -128.017 -65.384
349 -121.657 -62.505
350 -115.036 -59.502
351 -108.324 -56.455
352 -101.679 -53.433
353 -95.247 -50.501
354 -89.156 -47.721
355 -83.506 -45.149
356 -78.374 -42.831
357 -73.809 -40.793
358 -69.826 -39.037
359 -66.396 -37.538
360 -63.449 -36.247
361 -60.879 -35.102
362 -58.555 -34.024
363 -56.335 -32.931
364 -54.078 -31.744
365 -51.659 -30.396
366 -48.974 -28.836
367 -45.937 -27.031
368 -42.482 -24.962
369 -38.564 -22.624
370 -34.173 -20.033
371 -29.333 -17.219
372 -24.092 -14.229
373 -18.522 -11.125
374 -12.710 -7.970
375 -6.750 -4.827
376 -0.730 -1.741
377 5.265 1.261
378 11.163 4.170
379 16.906 6.987
380 22.454 9.713
381 27.789 12.348
382 32.909 14.899
383 37.828 17.372
384 42.571 19.787
385 47.171 22.164
386 51.660 24.524
387 56.076 26.887
388 60.460 29.265
389 64.849 31.668
390 69.279 34.105
391 73.787 36.588
392 78.420 39.130
393 83.231 41.749
394 88.273 44.473
395 93.588 47.326
396 99.193 50.328
397 105.069 53.476
398 111.163 56.751
399 117.381 60.103
400 123.592 63.464
401 129.621 66.738
402 135.252 69.805
403 140.225 72.527
404 144.237 74.756
405 146.949 76.328
406 147.994 77.068
407 146.992 76.785
408 143.563 75.281
409 137.357 72.362
410 128.093 67.862
411 115.609 61.681
412 99.904 53.803
413 81.175 44.319
414 59.834 33.435
415 36.502 21.464
416 11.967 8.812
417 -12.883 -4.063
418 -37.146 -16.701
419 -59.986 -28.681
420 -80.697 -39.642
421 -98.739 -49.300
422 -113.761 -57.455
423 -125.588 -63.993
424 -134.212 -68.883
425 -139.773 -72.176
426 -142.534 -73.987
427 -142.845 -74.486
428 -141.099 -73.877
429 -137.697 -72.374
430 -133.018 -70.185
431 -127.400 -67.489
432 -121.138 -64.433
433 -114.476 -61.132
434 -107.625 -57.682
435 -100.769 -54.176
436 -94.071 -50.707
437 -87.674 -47.364
438 -81.701 -44.225
439 -76.243 -41.345
440 -71.357 -38.756
441 -67.059 -36.473
442 -63.324 -34.492
443 -60.097 -32.797
444 -57.298 -31.354
445 -54.824 -30.117
446 -52.556 -29.024
447 -50.370 -28.004
448 -48.142 -26.979
449 -45.750 -25.866
450 -43.080 -24.590
451 -40.039 -23.092
452 -36.561 -21.331
453 -32.618 -19.291
454 -28.214 -16.972
455 -23.386 -14.395
456 -18.199 -11.594
457 -12.741 -8.617
458 -7.106 -5.512
459 -1.374 -2.326
460 4.384 0.902
461 10.121 4.140
462 15.804 7.362
463 21.423 10.554
464 26.982 13.708
465 32.493 16.824
466 37.973 19.906
467 43.442 22.966
468 48.930 26.024
469 54.469 29.107
470 60.090 32.241
471 65.818 35.451
472 71.674 38.749
473 77.680 42.144
474 83.863 45.636
475 90.246 49.227
476 96.829 52.911
477 103.592 56.672
478 110.493 60.477
479 117.471 64.280
480 124.431 68.022
481 131.238 71.628
482 137.709 75.000
483 143.623 78.026
484 148.725 80.582
485 152.722 82.535
486 155.292 83.736
487 156.092 84.026
488 154.764 83.233
489 150.959 81.179
490 144.365 77.692
491 134.733 72.627
492 121.916 65.894
493 105.901 57.476
494 86.850 47.454
495 65.130 36.017
496 41.318 23.470
497 16.175 10.215
498 -9.424 -3.278
499 -34.575 -16.527
500 -58.443 -29.082
501 -80.318 -40.565
502 -99.653 -50.684
503 -116.070 -59.241
504 -129.361 -66.125
505 -139.477 -71.316
506 -146.512 -74.874
507 -150.683 -76.923
508 -152.291 -77.633
509 -151.689 -77.203
510 -149.248 -75.843
511 -145.331 -73.754
512 -140.283 -71.125
513 -134.413 -68.121
514 -127.990 -64.882
515 -121.250 -61.521
516 -114.391 -58.129
517 -107.587 -54.783
518 -100.982 -51.555
519 -94.689 -48.502
520 -88.790 -45.665
521 -83.339 -43.070
522 -78.353 -40.726
523 -73.824 -38.624
524 -69.714 -36.740
525 -65.966 -35.037
526 -62.504 -33.473
527 -59.242 -32.005
528 -56.088 -30.592
529 -52.951 -29.180
530 -49.739 -27.713
531 -46.365 -26.131
532 -42.751 -24.383
533 -38.841 -22.427
534 -34.599 -20.240
535 -30.008 -17.815
536 -25.072 -15.169
537 -19.819 -12.338
538 -14.305 -9.374
539 -8.602 -6.337
540 -2.790 -3.277
541 3.056 -0.234
542 8.867 2.766
543 14.588 5.711
544 20.175 8.597
545 25.600 11.420
546 30.846 14.175
547 35.906 16.852
548 40.780 19.440
549 45.485 21.941
550 50.056 24.374
551 54.549 26.772
552 59.028 29.173
553 63.560 31.618
554 68.216 34.143
555 73.059 36.774
556 78.142 39.528
557 83.508 42.424
558 89.184 45.480
559 95.181 48.703
560 101.481 52.092
561 108.036 55.624
562 114.767 59.256
563 121.567 62.926
564 128.306 66.554
565 134.827 70.043
566 140.940 73.280
567 146.413 76.138
568 150.971 78.475
569 154.299 80.130
570 156.050 80.925
571 155.859 80.670
572 153.361 79.176
573 148.214 76.272
574 140.135 71.828
575 128.929 65.765
576 114.523 58.073
577 96.998 48.816
578 76.622 38.154
579 53.876 26.348
580 29.447 13.750
581 4.171 0.781
582 -21.048 -12.110
583 -45.333 -24.489
584 -67.910 -35.979
585 -88.163 -46.287
586 -105.657 -55.212
587 -120.137 -62.635
588 -131.514 -68.514
589 -139.845 -72.872
590 -145.307 -75.789
591 -148.167 -77.387
592 -148.744 -77.816
593 -147.379 -77.237
594 -144.403 -75.810
595 -140.121 -73.688
596 -134.813 -71.012
597 -128.732 -67.912
598 -122.114 -64.505
599 -115.170 -60.904
600 -108.097 -57.217
601 -101.072 -53.546
602 -94.249 -49.980
603 -87.748 -46.588
604 -81.660 -43.418
605 -76.052 -40.491
606 -70.966 -37.812
607 -66.420 -35.379
608 -62.409 -33.189
609 -58.903 -31.237
610 -55.835 -29.505
611 -53.104 -27.958
612 -50.583 -26.542
613 -48.132 -25.188
614 -45.615 -23.826
615 -42.908 -22.391
616 -39.907 -20.832
617 -36.537 -19.113
618 -32.755 -17.215
619 -28.552 -15.128
620 -23.948 -12.846
621 -18.988 -10.363
622 -13.739 -7.679
623 -8.278 -4.806
624 -2.686 -1.766
625 2.966 1.410
626 8.613 4.684
627 14.202 8.008
628 19.693 11.327
629 25.052 14.588
630 30.256 17.742
631 35.297 20.753
632 40.183 23.607
633 44.945 26.311
634 49.620 28.889
635 54.246 31.373
636 58.854 33.796
637 63.474 36.182
638 68.137 38.552
639 72.884 40.926
640 77.752 43.324
641 82.780 45.766
642 87.991 48.274
643 93.399 50.868
644 99.007 53.565
645 104.809 56.371
646 110.782 59.281
647 116.866 62.270
648 122.957 65.286
649 128.903 68.256
650 134.510 71.082
651 139.536 73.641
652 143.692 75.783
653 146.649 77.333
654 148.051 78.097
655 147.531 77.873
656 144.730 76.466
657 139.319 73.696
658 131.029 69.417
659 119.682 63.531
660 105.226 56.012
661 87.778 46.920
662 67.658 36.418
663 45.398 24.781
664 21.720 12.386
665 -2.539 -0.321
666 -26.505 -12.876
667 -49.355 -24.842
668 -70.380 -35.850
669 -89.028 -45.620
670 -104.920 -53.968
671 -117.851 -60.803
672 -127.769 -66.113
673 -134.757 -69.945
674 -139.007 -72.397
675 -140.795 -73.599
676 -140.454 -73.705
677 -138.341 -72.882
678 -134.818 -71.306
679 -130.225 -69.145
680 -124.869 -66.554
681 -119.010 -63.668
682 -112.862 -60.605
683 -106.597 -57.463
684 -100.350 -54.325
685 -94.224 -51.255
686 -88.306 -48.305
687 -82.678 -45.515
688 -77.413 -42.919
689 -72.564 -40.538
690 -68.155 -38.384
691 -64.184 -36.454
692 -60.623 -34.731
693 -57.421 -33.176
694 -54.507 -31.736
695 -51.792 -30.345
696 -49.180 -28.932
697 -46.571 -27.433
698 -43.869 -25.789
699 -40.991 -23.962
700 -37.874 -21.931
701 -34.474 -19.693
702 -30.765 -17.260
703 -26.743 -14.652
704 -22.420 -11.895
705 -17.828 -9.021
706 -13.010 -6.072
707 -8.029 -3.094
708 -2.952 -0.136
709 2.154 2.764
710 7.233 5.580
711 12.243 8.299
712 17.152 10.919
713 21.945 13.450
714 26.616 15.909
715 31.177 18.316
716 35.652 20.692
717 40.076 23.053
718 44.488 25.412
719 48.931 27.781
720 53.444 30.169
721 58.064 32.583
722 62.829 35.029
723 67.779 37.517
724 72.952 40.057
725 78.382 42.666
726 84.088 45.369
727 90.073 48.188
728 96.309 51.132
729 102.743 54.190
730 109.290 57.329
731 115.833 60.498
732 122.217 63.627
733 128.250 66.624
734 133.697 69.372
735 138.280 71.729
736 141.685 73.535
737 143.569 74.614
738 143.572 74.784
739 141.331 73.859
740 136.506 71.666
741 128.810 68.058
742 118.048 62.926
743 104.159 56.220
744 87.252 47.972
745 67.645 38.317
746 45.877 27.500
747 22.676 15.870
748 -1.109 3.847
749 -24.594 -8.122
750 -46.939 -19.603
751 -67.418 -30.226
752 -85.465 -39.697
753 -100.690 -47.811
754 -112.882 -54.445
755 -121.995 -59.559
756 -128.119 -63.181
757 -131.457 -65.401
758 -132.294 -66.352
759 -130.975 -66.201
760 -127.872 -65.134
761 -123.363 -63.343
762 -117.806 -61.016
763 -111.522 -58.324
764 -104.785 -55.411
765 -97.828 -52.393
766 -90.848 -49.357
767 -84.014 -46.373
768 -77.480 -43.498
769 -71.382 -40.779
770 -65.827 -38.254
771 -60.892 -35.952
772 -56.613 -33.895
773 -52.984 -32.088
774 -49.954 -30.523
775 -47.438 -29.173
776 -45.325 -27.999
777 -43.496 -26.956
778 -41.833 -25.998
779 -40.224 -25.080
780 -38.562 -24.156
781 -36.752 -23.178
782 -34.713 -22.090
783 -32.375 -20.838
784 -29.684 -19.371
785 -26.601 -17.646
786 -23.109 -15.639
787 -19.213 -13.351
788 -14.949 -10.807
789 -10.372 -8.057
790 -5.548 -5.159
791 -0.539 -2.172
792 4.599 0.851
793 9.820 3.863
794 15.086 6.826
795 20.366 9.716
796 25.638 12.524
797 30.889 15.249
798 36.114 17.902
799 41.316 20.500
800 46.509 23.073
801 51.718 25.653
802 56.973 28.278
803 62.298 30.977
804 67.715 33.773
805 73.239 36.671
806 78.878 39.670
807 84.623 42.760
808 90.446 45.922
809 96.287 49.125
810 102.054 52.320
811 107.620 55.437
812 112.821 58.386
813 117.457 61.057
814 121.297 63.323
815 124.080 65.045
816 125.520 66.067
817 125.310 66.226
818 123.137 65.358
819 118.706 63.308
820 111.767 59.945
821 102.152 55.177
822 89.799 48.971
823 74.793 41.368
824 57.396 32.499
825 38.060 22.587
826 17.409 11.943
827 -3.810 0.944
828 -24.818 -10.005
829 -44.873 -20.513
830 -63.334 -30.242
831 -79.693 -38.926
832 -93.595 -46.380
833 -104.838 -52.501
834 -113.364 -57.254
835 -119.233 -60.658
836 -122.605 -62.775
837 -123.714 -63.701
838 -122.848 -63.563
839 -120.322 -62.511
840 -116.462 -60.712
841 -111.586 -58.341
842 -105.986 -55.566
843 -99.927 -52.542
844 -93.637 -49.393
845 -87.307 -46.213
846 -81.091 -43.074
847 -75.114 -40.028
848 -69.478 -37.121
849 -64.259 -34.398
850 -59.509 -31.900
851 -55.247 -29.658
852 -51.469 -27.689
853 -48.145 -25.992
854 -45.219 -24.542
855 -42.612 -23.291
856 -40.227 -22.173
857 -37.956 -21.118
858 -35.697 -20.057
859 -33.354 -18.933
860 -30.847 -17.693
861 -28.103 -16.293
862 -25.062 -14.697
863 -21.677 -12.882
864 -17.923 -10.837
865 -13.794 -8.568
866 -9.311 -6.092
867 -4.518 -3.447
868 0.510 -0.684
869 5.681 2.132
870 10.902 4.940
871 16.090 7.693
872 21.180 10.368
873 26.126 12.961
874 30.912 15.485
875 35.542 17.961
876 40.035 20.408
877 44.417 22.840
878 48.718 25.261
879 52.968 27.667
880 57.204 30.056
881 61.472 32.429
882 65.827 34.803
883 70.327 37.201
884 75.019 39.652
885 79.946 42.182
886 85.133 44.808
887 90.592 47.538
888 96.308 50.366
889 102.233 53.280
890 108.290 56.256
891 114.363 59.259
892 120.298 62.234
893 125.900 65.101
894 130.937 67.747
895 135.141 70.030
896 138.209 71.784
897 139.815 72.823
898 139.616 72.959
899 137.274 72.004
900 132.474 69.791
901 124.952 66.177
902 114.525 61.063
903 101.130 54.407
904 84.860 46.249
905 65.991 36.719
906 44.999 26.048
907 22.535 14.565
908 -0.620 2.668
909 -23.649 -9.219
910 -45.769 -20.687
911 -66.297 -31.377
912 -84.688 -41.000
913 -100.559 -49.348
914 -113.686 -56.300
915 -123.992 -61.812
916 -131.529 -65.907
917 -136.452 -68.659
918 -139.000 -70.181
919 -139.468 -70.616
920 -138.183 -70.117
921 -135.471 -68.843
922 -131.639 -66.949
923 -126.960 -64.583
924 -121.666 -61.880
925 -115.945 -58.955
926 -109.950 -55.899
927 -103.804 -52.792
928 -97.619 -49.700
929 -91.508 -46.688
930 -85.582 -43.821
931 -79.936 -41.154
932 -74.645 -38.732
933 -69.767 -36.578
934 -65.330 -34.690
935 -61.333 -33.036
936 -57.746 -31.562
937 -54.509 -30.202
938 -51.546 -28.888
939 -48.769 -27.559
940 -46.084 -26.161
941 -43.396 -24.653
942 -40.618 -23.002
943 -37.672 -21.186
944 -34.493 -19.191
945 -31.036 -17.011
946 -27.273 -14.651
947 -23.200 -12.126
948 -18.841 -9.461
949 -14.243 -6.694
950 -9.475 -3.874
951 -4.612 -1.056
952 0.276 1.704
953 5.136 4.364
954 9.930 6.894
955 14.638 9.280
956 19.249 11.519
957 23.759 13.618
958 28.161 15.593
959 32.442 17.456
960 36.587 19.220
961 40.591 20.899
962 44.463 22.515
963 48.233 24.105
964 51.949 25.712
965 55.670 27.388
966 59.469 29.179
967 63.419 31.126
968 67.584 33.259
969 72.010 35.594
970 76.724 38.134
971 81.739 40.876
972 87.062 43.809
973 92.688 46.918
974 98.596 50.180
975 104.742 53.553
976 111.054 56.981
977 117.426 60.388
978 123.716 63.691
979 129.735 66.795
980 135.250 69.592
981 139.973 71.960
982 143.578 73.761
983 145.718 74.838
984 146.038 75.025
985 144.198 74.156
986 139.880 72.075
987 132.813 68.646
988 122.805 63.763
989 109.775 57.365
990 93.786 49.460
991 75.082 40.150
992 54.104 29.637
993 31.482 18.225
994 7.981 6.290
995 -15.571 -5.754
996 -38.366 -17.494
997 -59.682 -28.557
998 -78.938 -38.632
999 -95.710 -47.497
1000 -109.743 -55.012
1001 -120.935 -61.117
1002 -129.329 -65.818
1003 -135.080 -69.177
1004 -138.421 -71.297
1005 -139.631 -72.316
1006 -139.013 -72.385
1007 -136.862 -71.658
1008 -133.466 -70.282
1009 -129.095 -68.395
1010 -124.003 -66.122
1011 -118.418 -63.574
1012 -112.539 -60.849
1013 -106.535 -58.029
1014 -100.549 -55.185
1015 -94.700 -52.373
1016 -89.085 -49.642
1017 -83.775 -47.028
1018 -78.829 -44.558
1019 -74.290 -42.255
1020 -70.193 -40.141
1021 -66.551 -38.227
1022 -63.351 -36.517
1023 -60.551 -34.995
1024 -58.088 -33.629
1025 -55.877 -32.365
1026 -53.821 -31.140
1027 -51.813 -29.884
1028 -49.742 -28.538
1029 -47.507 -27.061
1030 -45.026 -25.426
1031 -42.238 -23.620
1032 -39.104 -21.642
1033 -35.609 -19.497
1034 -31.754 -17.198
1035 -27.561 -14.760
1036 -23.063 -12.209
1037 -18.306 -9.574
1038 -13.353 -6.889
1039 -8.285 -4.194
1040 -3.191 -1.529
1041 1.848 1.073
1042 6.769 3.589
1043 11.531 6.013
1044 16.109 8.347
1045 20.494 10.604
1046 24.698 12.801
1047 28.740 14.959
1048 32.646 17.095
1049 36.446 19.214
1050 40.163 21.315
1051 43.816 23.391
1052 47.424 25.441
1053 51.016 27.468
1054 54.626 29.482
1055 58.306 31.498
1056 62.116 33.539
1057 66.122 35.636
1058 70.385 37.824
1059 74.950 40.132
1060 79.847 42.580
1061 85.095 45.179
1062 90.703 47.933
1063 96.666 50.850
1064 102.957 53.935
1065 109.521 57.183
1066 116.270 60.563
1067 123.078 64.017
1068 129.774 67.453
1069 136.144 70.759
1070 141.936 73.800
1071 146.868 76.431
1072 150.633 78.502
1073 152.906 79.848
1074 153.344 80.301
1075 151.605 79.688
1076 147.354 77.844
1077 140.301 74.616
1078 130.223 69.882
1079 117.001 63.564
1080 100.665 55.657
1081 81.436 46.252
1082 59.753 35.544
1083 36.261 23.837
1084 11.772 11.523
1085 -12.824 -0.954
1086 -36.651 -13.156
1087 -58.929 -24.681
1088 -79.025 -35.202
1089 -96.486 -44.480
1090 -111.049 -52.368
1091 -122.623 -58.802
1092 -131.262 -63.782
1093 -137.129 -67.368
1094 -140.468 -69.664
1095 -141.578 -70.808
1096 -140.789 -70.960
1097 -138.434 -70.279
1098 -134.832 -68.920
1099 -130.269 -67.021
1100 -124.996 -64.701
1101 -119.224 -62.060
1102 -113.134 -59.191
1103 -106.883 -56.184
1104 -100.620 -53.125
1105 -94.481 -50.096
1106 -88.592 -47.165
1107 -83.051 -44.387
1108 -77.931 -41.801
1109 -73.289 -39.436
1110 -69.161 -37.313
1111 -65.566 -35.449
1112 -62.493 -33.850
1113 -59.905 -32.510
1114 -57.727 -31.396
1115 -55.854 -30.450
1116 -54.160 -29.598
1117 -52.511 -28.757
1118 -50.773 -27.847
1119 -48.825 -26.802
1120 -46.571 -25.574
1121 -43.938 -24.142
1122 -40.887 -22.510
1123 -37.409 -20.697
1124 -33.527 -18.726
1125 -29.282 -16.620
1126 -24.728 -14.399
1127 -19.925 -12.083
1128 -14.937 -9.684
1129 -9.828 -7.215
1130 -4.664 -4.688
1131 0.491 -2.126
1132 5.582 0.448
1133 10.562 3.009
1134 15.398 5.543
1135 20.070 8.037
1136 24.582 10.489
1137 28.957 12.902
1138 33.232 15.292
1139 37.449 17.671
1140 41.641 20.051
1141 45.835 22.433
1142 50.053 24.817
1143 54.320 27.206
1144 58.665 29.610
1145 63.125 32.045
1146 67.742 34.535
1147 72.557 37.106
1148 77.599 39.786
1149 82.882 42.592
1150 88.406 45.529
1151 94.158 48.587
1152 100.111 51.747
1153 106.227 54.984
1154 112.453 58.263
1155 118.701 61.541
1156 124.845 64.754
1157 130.715 67.815
1158 136.095 70.609
1159 140.721 72.994
1160 144.286 74.805
1161 146.450 75.870
1162 146.853 76.011
1163 145.137 75.063
1164 140.959 72.870
1165 134.016 69.296
1166 124.073 64.236
1167 111.003 57.632
1168 94.834 49.498
1169 75.781 39.933
1170 54.270 29.140
1171 30.932 17.426
1172 6.566 5.181
1173 -17.936 -7.157
1174 -41.685 -19.149
1175 -63.872 -30.397
1176 -83.829 -40.569
1177 -101.066 -49.418
1178 -115.279 -56.788
1179 -126.343 -62.613
1180 -134.294 -66.901
1181 -139.291 -69.727
1182 -141.588 -71.209
1183 -141.501 -71.501
1184 -139.384 -70.777
1185 -135.604 -69.218
1186 -130.525 -67.002
1187 -124.488 -64.295
1188 -117.798 -61.245
1189 -110.718 -57.980
1190 -103.470 -54.609
1191 -96.241 -51.230
1192 -89.190 -47.925
1193 -82.460 -44.760
1194 -76.173 -41.788
1195 -70.426 -39.050
1196 -65.284 -36.575
1197 -60.768 -34.376
1198 -56.860 -32.447
1199 -53.503 -30.766
1200 -50.620 -29.298
1201 -48.115 -27.996
1202 -45.881 -26.806
1203 -43.800 -25.664
1204 -41.748 -24.509
1205 -39.604 -23.287
1206 -37.260 -21.950
1207 -34.623 -20.456
1208 -31.623 -18.772
1209 -28.226 -16.871
1210 -24.436 -14.738
1211 -20.292 -12.380
1212 -15.847 -9.824
1213 -11.165 -7.113
1214 -6.312 -4.296
1215 -1.358 -1.422
1216 3.641 1.467
1217 8.638 4.332
1218 13.596 7.145
1219 18.488 9.885
1220 23.288 12.535
1221 27.970 15.079
1222 32.519 17.506
1223 36.934 19.816
1224 41.239 22.019
1225 45.473 24.143
1226 49.697 26.228
1227 53.979 28.327
1228 58.396 30.495
1229 63.020 32.780
1230 67.900 35.217
1231 73.059 37.824
1232 78.500 40.606
1233 84.221 43.557
1234 90.216 46.662
1235 96.459 49.905
1236 102.906 53.265
1237 109.483 56.713
1238 116.083 60.207
1239 122.558 63.682
1240 128.720 67.040
1241 134.339 70.155
1242 139.147 72.874
1243 142.842 75.025
1244 145.098 76.424
1245 145.568 76.880
1246 143.899 76.204
1247 139.745 74.217
1248 132.793 70.761
1249 122.802 65.712
1250 109.636 59.002
1251 93.306 50.637
1252 74.011 40.724
1253 52.173 29.484
1254 28.430 17.255
1255 3.598 4.465
1256 -21.414 -8.417
1257 -45.700 -20.924
1258 -68.437 -32.634
1259 -88.952 -43.195
1260 -106.750 -52.348
1261 -121.528 -59.935
1262 -133.162 -65.896
1263 -141.687 -70.257
1264 -147.266 -73.115
1265 -150.155 -74.617
1266 -150.675 -74.934
1267 -149.176 -74.247
1268 -146.014 -72.738
1269 -141.530 -70.577
1270 -136.039 -67.916
1271 -129.827 -64.883
1272 -123.141 -61.585
1273 -116.185 -58.114
1274 -109.136 -54.554
1275 -102.146 -50.991
1276 -95.355 -47.511
1277 -88.891 -44.201
1278 -82.865 -41.138
1279 -77.364 -38.387
1280 -72.445 -35.992
1281 -68.127 -33.980
1282 -64.398 -32.352
1283 -61.212 -31.075
1284 -58.495 -30.094
1285 -56.148 -29.338
1286 -54.052 -28.730
1287 -52.076 -28.192
1288 -50.082 -27.648
1289 -47.930 -27.024
1290 -45.490 -26.246
1291 -42.652 -25.246
1292 -39.333 -23.968
1293 -35.489 -22.377
1294 -31.118 -20.460
1295 -26.255 -18.226
1296 -20.966 -15.701
1297 -15.328 -12.925
1298 -9.418 -9.943
1299 -3.313 -6.802
1300 2.913 -3.550
1301 9.182 -0.234
1302 15.415 3.095
1303 21.541 6.393
1304 27.507 9.623
1305 33.284 12.761
1306 38.857 15.797
1307 44.226 18.731
1308 49.408 21.570
1309 54.434 24.330
1310 59.344 27.031
1311 64.184 29.698
1312 68.998 32.355
1313 73.828 35.029
1314 78.723 37.751
1315 83.734 40.554
1316 88.915 43.472
1317 94.318 46.535
1318 99.984 49.763
1319 105.938 53.166
1320 112.183 56.738
1321 118.686 60.449
1322 125.378 64.247
1323 132.148 68.052
1324 138.845 71.768
1325 145.281 75.278
1326 151.227 78.458
1327 156.418 81.168
1328 160.552 83.267
1329 163.287 84.600
1330 164.246 84.999
1331 163.026 84.278
1332 159.224 82.244
1333 152.471 78.712
1334 142.469 73.535
1335 129.043 66.634
1336 112.185 58.011
1337 92.094 47.773
1338 69.200 36.138
1339 44.155 23.433
1340 17.797 10.070
1341 -8.929 -3.494
1342 -35.072 -16.804
1343 -59.762 -29.435
1344 -82.269 -41.018
1345 -102.036 -51.265
1346 -118.700 -59.976
1347 -132.090 -67.043
1348 -142.203 -72.445
1349 -149.173 -76.234
1350 -153.244 -78.521
1351 -154.742 -79.460
1352 -154.041 -79.231
1353 -151.534 -78.023
1354 -147.596 -76.026
1355 -142.569 -73.417
1356 -136.750 -70.354
1357 -130.390 -66.975
1358 -123.693 -63.401
1359 -116.829 -59.732
1360 -109.942 -56.051
1361 -103.160 -52.427
1362 -96.604 -48.927
1363 -90.380 -45.607
1364 -84.577 -42.512
1365 -79.258 -39.676
1366 -74.452 -37.123
1367 -70.160 -34.864
1368 -66.355 -32.893
1369 -62.986 -31.183
1370 -59.975 -29.684
1371 -57.227 -28.332
1372 -54.632 -27.053
1373 -52.072 -25.773
1374 -49.430 -24.423
1375 -46.598 -22.941
1376 -43.483 -21.274
1377 -40.010 -19.388
1378 -36.136 -17.268
1379 -31.843 -14.914
1380 -27.141 -12.339
1381 -22.056 -9.571
1382 -16.637 -6.645
1383 -10.951 -3.608
1384 -5.077 -0.506
1385 0.898 2.614
1386 6.889 5.698
1387 12.818 8.696
1388 18.617 11.569
1389 24.237 14.295
1390 29.646 16.876
1391 34.836 19.329
1392 39.818 21.681
1393 44.622 23.964
1394 49.297 26.211
1395 53.900 28.450
1396 58.496 30.708
1397 63.154 33.017
1398 67.954 35.408
1399 72.979 37.919
1400 78.300 40.587
1401 83.958 43.436
1402 89.964 46.482
1403 96.300 49.724
1404 102.923 53.153
1405 109.770 56.745
1406 116.746 60.458
1407 123.723 64.222
1408 130.534 67.941
1409 136.972 71.491
1410 142.790 74.718
1411 147.697 77.452
1412 151.355 79.503
1413 153.396 80.674
1414 153.435 80.763
1415 151.098 79.580
1416 146.045 76.958
1417 138.005 72.768
1418 126.806 66.937
1419 112.406 59.456
1420 94.925 50.407
1421 74.680 39.967
1422 52.193 28.412
1423 28.178 16.105
1424 3.479 3.470
1425 -21.011 -9.045
1426 -44.439 -21.011
1427 -66.066 -32.052
1428 -85.307 -41.870
1429 -101.758 -50.255
1430 -115.192 -57.097
1431 -125.548 -62.374
1432 -132.910 -66.144
1433 -137.475 -68.523
1434 -139.517 -69.664
1435 -139.360 -69.736
1436 -137.348 -68.911
1437 -133.824 -67.357
1438 -129.112 -65.228
1439 -123.508 -62.658
1440 -117.282 -59.763
1441 -110.673 -56.647
1442 -103.898 -53.408
1443 -97.146 -50.140
1444 -90.578 -46.932
1445 -84.325 -43.860
1446 -78.490 -40.987
1447 -73.139 -38.357
1448 -68.312 -35.993
1449 -64.015 -33.902
1450 -60.224 -32.071
1451 -56.888 -30.472
1452 -53.942 -29.061
1453 -51.302 -27.785
1454 -48.874 -26.581
1455 -46.552 -25.388
1456 -44.231 -24.145
1457 -41.816 -22.801
1458 -39.223 -21.326
1459 -36.384 -19.706
1460 -33.252 -17.944
1461 -29.803 -16.053
1462 -26.036 -14.056
1463 -21.967 -11.977
1464 -17.624 -9.839
1465 -13.042 -7.656
1466 -8.259 -5.438
1467 -3.318 -3.194
1468 1.735 -0.925
1469 6.849 1.371
1470 11.981 3.692
1471 17.098 6.036
1472 22.190 8.406
1473 27.266 10.813
1474 32.358 13.276
1475 37.510 15.823
1476 42.772 18.477
1477 48.189 21.260
1478 53.800 24.188
1479 59.641 27.274
1480 65.744 30.522
1481 72.126 33.937
1482 78.784 37.517
1483 85.692 41.259
1484 92.804 45.145
1485 100.050 49.147
1486 107.331 53.210
1487 114.522 57.253
1488 121.464 61.167
1489 127.957 64.826
1490 133.764 68.094
1491 138.610 70.822
1492 142.187 72.845
1493 144.164 73.993
1494 144.192 74.091
1495 141.921 72.968
1496 137.024 70.470
1497 129.227 66.469
1498 118.350 60.888
1499 104.352 53.716
1500 87.376 45.032
1501 67.767 35.017
1502 46.082 23.953
1503 23.049 12.210
1504 -0.490 0.206
1505 -23.668 -11.634
1506 -45.672 -22.914
1507 -65.796 -33.287
1508 -83.489 -42.479
1509 -98.370 -50.294
1510 -110.225 -56.618
1511 -119.003 -61.414
1512 -124.795 -64.712
1513 -127.811 -66.604
1514 -128.343 -67.228
1515 -126.732 -66.751
1516 -123.340 -65.354
1517 -118.523 -63.214
1518 -112.617 -60.500
1519 -105.928 -57.363
1520 -98.735 -53.936
1521 -91.291 -50.330
1522 -83.825 -46.646
1523 -76.539 -42.970
1524 -69.606 -39.380
1525 -63.160 -35.939
1526 -57.291 -32.703
1527 -52.053 -29.713
1528 -47.464 -26.992
1529 -43.503 -24.542
1530 -40.123 -22.348
1531 -37.246 -20.378
1532 -34.781 -18.602
1533 -32.626 -16.989
1534 -30.668 -15.502
1535 -28.791 -14.095
1536 -26.873 -12.713
1537 -24.796 -11.293
1538 -22.451 -9.780
1539 -19.742 -8.135
1540 -16.598 -6.337
1541 -12.986 -4.382
1542 -8.917 -2.281
1543 -4.440 -0.052
1544 0.363 2.282
1545 5.393 4.696
1546 10.546 7.157
1547 15.735 9.634
1548 20.893 12.103
1549 25.983 14.556
1550 30.986 16.994
1551 35.904 19.423
1552 40.755 21.849
1553 45.574 24.281
1554 50.403 26.733
1555 55.298 29.224
1556 60.316 31.774
1557 65.507 34.410
1558 70.906 37.157
1559 76.526 40.029
1560 82.360 43.023
1561 88.373 46.113
1562 94.495 49.258
1563 100.618 52.401
1564 106.592 55.475
1565 112.227 58.388
1566 117.296 61.025
1567 121.537 63.252
1568 124.656 64.915
1569 126.333 65.847
1570 126.240 65.877
1571 124.056 64.840
1572 119.486 62.589
1573 112.289 59.007
1574 102.302 54.021
1575 89.486 47.617
1576 73.950 39.851
1577 55.988 30.863
1578 36.083 20.886
1579 14.883 10.241
1580 -6.853 -0.693
1581 -28.332 -11.510
1582 -48.802 -21.826
1583 -67.620 -31.319
1584 -84.289 -39.743
1585 -98.476 -46.941
1586 -110.005 -52.836
1587 -118.850 -57.421
1588 -125.097 -60.742
1589 -128.919 -62.882
1590 -130.538 -63.948
1591 -130.217 -64.064
1592 -128.235 -63.371
1593 -124.881 -62.014
1594 -120.438 -60.139
1595 -115.177 -57.884
1596 -109.339 -55.375
1597 -103.132 -52.716
1598 -96.727 -49.986
1599 -90.271 -47.242
1600 -83.881 -44.524
1601 -77.657 -41.868
1602 -71.689 -39.303
1603 -66.055 -36.857
1604 -60.829 -34.554
1605 -56.064 -32.415
1606 -51.783 -30.448
1607 -47.974 -28.644
1608 -44.583 -26.976
1609 -41.518 -25.398
1610 -38.666 -23.856
1611 -35.909 -22.296
1612 -33.142 -20.668
1613 -30.278 -18.939
1614 -27.251 -17.086
1615 -24.010 -15.103
1616 -20.519 -12.993
1617 -16.756 -10.758
1618 -12.714 -8.400
1619 -8.408 -5.924
1620 -3.868 -3.339
1621 0.861 -0.665
1622 5.726 2.070
1623 10.661 4.833
1624 15.606 7.584
1625 20.512 10.290
1626 25.341 12.924
1627 30.062 15.471
1628 34.661 17.928
1629 39.131 20.304
1630 43.487 22.623
1631 47.759 24.913
1632 51.994 27.206
1633 56.245 29.536
1634 60.568 31.936
1635 65.020 34.439
1636 69.657 37.071
1637 74.528 39.842
1638 79.674 42.746
1639 85.113 45.764
1640 90.836 48.872
1641 96.797 52.038
1642 102.913 55.216
1643 109.064 58.347
1644 115.091 61.356
1645 120.806 64.155
1646 125.987 66.645
1647 130.380 68.711
1648 133.698 70.225
1649 135.624 71.044
1650 135.818 71.014
1651 133.939 69.974
1652 129.664 67.765
1653 122.722 64.253
1654 112.927 59.340
1655 100.209 52.985
1656 84.654 45.220
1657 66.529 36.164
1658 46.304 26.034
1659 24.624 15.139
1660 2.260 3.855
1661 -19.972 -7.416
1662 -41.295 -18.283
1663 -61.034 -28.402
1664 -78.657 -37.499
1665 -93.799 -45.386
1666 -106.261 -51.961
1667 -116.000 -57.204
1668 -123.099 -61.157
1669 -127.733 -63.909
1670 -130.135 -65.573
1671 -130.575 -66.265
1672 -129.342 -66.106
1673 -126.731 -65.218
1674 -123.021 -63.724
1675 -118.474 -61.745
1676 -113.316 -59.390
1677 -107.738 -56.751
1678 -101.894 -53.906
1679 -95.911 -50.923
1680 -89.901 -47.864
1681 -83.963 -44.786
1682 -78.189 -41.746
1683 -72.660 -38.800
1684 -67.446 -36.008
1685 -62.597 -33.424
1686 -58.138 -31.086
1687 -54.069 -29.010
1688 -50.365 -27.183
1689 -46.983 -25.575
1690 -43.857 -24.136
1691 -40.912 -22.811
1692 -38.065 -21.548
1693 -35.244 -20.305
1694 -32.389 -19.052
1695 -29.452 -17.763
1696 -26.397 -16.416
1697 -23.195 -14.987
1698 -19.822 -13.457
1699 -16.258 -11.814
1700 -12.489 -10.046
1701 -8.512 -8.150
1702 -4.335 -6.130
1703 0.008 -3.999
1704 4.464 -1.779
1705 8.968 0.500
1706 13.467 2.811
1707 17.921 5.138
1708 22.305 7.471
1709 26.608 9.808
1710 30.830 12.151
1711 34.983 14.505
1712 39.085 16.880
1713 43.154 19.288
1714 47.214 21.738
1715 51.299 24.238
1716 55.459 26.792
1717 59.746 29.405
1718 64.214 32.083
1719 68.905 34.830
1720 73.858 37.649
1721 79.096 40.536
1722 84.624 43.482
1723 90.416 46.471
1724 96.410 49.479
1725 102.508 52.471
1726 108.586 55.409
1727 114.492 58.240
1728 120.052 60.901
1729 125.073 63.320
1730 129.331 65.406
1731 132.574 67.045
1732 134.508 68.096
1733 134.804 68.395
1734 133.113 67.764
1735 129.100 66.020
1736 122.472 63.000
1737 113.012 58.583
1738 100.622 52.712
1739 85.351 45.412
1740 67.428 36.789
1741 47.280 27.047
1742 25.516 16.474
1743 2.879 5.423
1744 -19.816 -5.717
1745 -41.768 -16.563
1746 -62.246 -26.760
1747 -80.644 -36.009
1748 -96.517 -44.081
1749 -109.593 -50.828
1750 -119.767 -56.184
1751 -127.077 -60.158
1752 -131.681 -62.821
1753 -133.829 -64.289
1754 -133.838 -64.713
1755 -132.055 -64.258
1756 -128.828 -63.093
1757 -124.487 -61.372
1758 -119.329 -59.230
1759 -113.610 -56.780
1760 -107.546 -54.119
1761 -101.310 -51.323
1762 -95.044 -48.459
1763 -88.861 -45.583
1764 -82.861 -42.743
1765 -77.128 -39.979
1766 -71.733 -37.327
1767 -66.734 -34.822
1768 -62.176 -32.498
1769 -58.086 -30.378
1770 -54.464 -28.474
1771 -51.273 -26.775
1772 -48.452 -25.252
1773 -45.920 -23.856
1774 -43.592 -22.533
1775 -41.379 -21.233
1776 -39.194 -19.910
1777 -36.951 -18.534
1778 -34.573 -17.088
1779 -31.994 -15.563
1780 -29.160 -13.948
1781 -26.036 -12.233
1782 -22.609 -10.418
1783 -18.887 -8.515
1784 -14.903 -6.548
1785 -10.706 -4.545
1786 -6.356 -2.536
1787 -1.915 -0.542
1788 2.561 1.424
1789 7.028 3.356
1790 11.454 5.259
1791 15.833 7.143
1792 20.171 9.021
1793 24.481 10.911
1794 28.765 12.823
1795 33.020 14.762
1796 37.242 16.729
1797 41.429 18.727
1798 45.589 20.764
1799 49.743 22.857
1800 53.924 25.029
1801 58.179 27.316
1802 62.566 29.760
1803 67.141 32.392
1804 71.956 35.222
1805 77.050 38.241
1806 82.446 41.433
1807 88.148 44.774
1808 94.131 48.242
1809 100.342 51.805
1810 106.695 55.421
1811 113.072 59.031
1812 119.318 62.558
1813 125.236 65.901
1814 130.582 68.935
1815 135.066 71.507
1816 138.361 73.438
1817 140.111 74.540
1818 139.939 74.616
1819 137.479 73.479
1820 132.399 70.963
1821 124.439 66.940
1822 113.439 61.335
1823 99.378 54.149
1824 82.405 45.462
1825 62.865 35.449
1826 41.304 24.379
1827 18.446 12.610
1828 -4.877 0.561
1829 -27.800 -11.329
1830 -49.509 -22.640
1831 -69.313 -33.015
1832 -86.685 -42.177
1833 -101.284 -49.946
1834 -112.944 -56.235
1835 -121.651 -61.038
1836 -127.505 -64.407
1837 -130.701 -66.441
1838 -131.502 -67.269
1839 -130.218 -67.040
1840 -127.180 -65.913
1841 -122.718 -64.042
1842 -117.147 -61.578
1843 -110.757 -58.664
1844 -103.817 -55.427
1845 -96.570 -51.981
1846 -89.237 -48.427
1847 -82.013 -44.856
1848 -75.065 -41.355
1849 -68.527 -38.001
1850 -62.506 -34.856
1851 -57.072 -31.971
1852 -52.268 -29.384
1853 -48.098 -27.117
1854 -44.534 -25.176
1855 -41.518 -23.548
1856 -38.973 -22.204
1857 -36.807 -21.100
1858 -34.909 -20.179
1859 -33.154 -19.380
1860 -31.412 -18.632
1861 -29.560 -17.864
1862 -27.490 -17.006
1863 -25.118 -15.995
1864 -22.386 -14.783
1865 -19.256 -13.337
1866 -15.714 -11.642
1867 -11.766 -9.695
1868 -7.446 -7.507
1869 -2.810 -5.101
1870 2.073 -2.513
1871 7.129 0.216
1872 12.289 3.047
1873 17.492 5.940
1874 22.689 8.863
1875 27.855 11.794
1876 32.983 14.724
1877 38.081 17.657
1878 43.162 20.595
1879 48.242 23.544
1880 53.344 26.509
1881 58.499 29.504
1882 63.747 32.545
1883 69.130 35.651
1884 74.680 38.827
1885 80.400 42.067
1886 86.263 45.350
1887 92.208 48.641
1888 98.147 51.890
1889 103.969 55.033
1890 109.535 58.001
1891 114.676 60.719
1892 119.187 63.099
1893 122.819 65.032
1894 125.288 66.386
1895 126.273 67.004
1896 125.445 66.709
1897 122.482 65.319
1898 117.093 62.664
1899 109.042 58.606
1900 98.178 53.060
1901 84.479 46.010
1902 68.085 37.529
1903 49.322 27.788
1904 28.701 17.057
1905 6.889 5.687
1906 -15.340 -5.913
1907 -37.182 -17.320
1908 -57.867 -28.129
1909 -76.723 -37.989
1910 -93.220 -46.621
1911 -106.994 -53.834
1912 -117.855 -59.525
1913 -125.769 -63.681
1914 -130.837 -66.361
1915 -133.265 -67.680
1916 -133.332 -67.796
1917 -131.362 -66.882
1918 -127.695 -65.121
1919 -122.673 -62.692
1920 -116.631 -59.768
1921 -109.881 -56.512
1922 -102.714 -53.071
1923 -95.386 -49.572
1924 -88.119 -46.118
1925 -81.092 -42.789
1926 -74.441 -39.644
1927 -68.259 -36.724
1928 -62.600 -34.058
1929 -57.491 -31.666
1930 -52.933 -29.553
1931 -48.909 -27.709
1932 -45.384 -26.112
1933 -42.301 -24.726
1934 -39.581 -23.507
1935 -37.131 -22.398
1936 -34.850 -21.334
1937 -32.628 -20.245
1938 -30.357 -19.065
1939 -27.932 -17.735
1940 -25.265 -16.209
1941 -22.289 -14.461
1942 -18.958 -12.480
1943 -15.244 -10.269
1944 -11.150 -7.847
1945 -6.704 -5.243
1946 -1.961 -2.493
1947 3.008 0.360
1948 8.127 3.273
1949 13.325 6.201
1950 18.538 9.104
1951 23.718 11.954
1952 28.835 14.740
1953 33.884 17.473
1954 38.880 20.180
1955 43.847 22.891
1956 48.818 25.636
1957 53.833 28.431
1958 58.937 31.292
1959 64.174 34.227
1960 69.583 37.246
1961 75.197 40.356
1962 81.048 43.562
1963 87.160 46.861
1964 93.531 50.244
1965 100.118 53.688
1966 106.829 57.155
1967 113.536 60.592
1968 120.073 63.925
1969 126.246 67.068
1970 131.832 69.915
1971 136.575 72.344
1972 140.187 74.216
1973 142.353 75.375
1974 142.733 75.651
1975 140.971 74.863
1976 136.719 72.826
1977 129.673 69.376
1978 119.610 64.391
1979 106.430 57.816
1980 90.200 49.688
1981 71.190 40.150
1982 49.893 29.458
1983 27.001 17.961
1984 3.344 6.071
1985 -20.194 -5.781
1986 -42.768 -17.185
1987 -63.638 -27.788
1988 -82.221 -37.306
1989 -98.108 -45.540
1990 -111.066 -52.367
1991 -121.025 -57.740
1992 -128.058 -61.682
1993 -132.358 -64.276
1994 -134.208 -65.650
1995 -133.948 -65.967
1996 -131.937 -65.398
1997 -128.522 -64.107
1998 -124.027 -62.243
1999 -118.730 -59.938
2000 -112.868 -57.307
2001 -106.635 -54.450
2002 -100.194 -51.453
2003 -93.681 -48.386
2004 -87.214 -45.314
2005 -80.900 -42.289
2006 -74.836 -39.361
2007 -69.109 -36.568
2008 -63.790 -33.942
2009 -58.922 -31.508
2010 -54.529 -29.284
2011 -50.610 -27.283
2012 -47.146 -25.500
2013 -44.091 -23.920
2014 -41.381 -22.515
2015 -38.931 -21.251
2016 -36.640 -20.080
2017 -34.396 -18.944
2018 -32.083 -17.783
2019 -29.599 -16.539
2020 -26.857 -15.167
2021 -23.789 -13.631
2022 -20.351 -11.914
2023 -16.521 -10.011
2024 -12.300 -7.928
2025 -7.714 -5.684
2026 -2.814 -3.308
2027 2.336 -0.828
2028 7.665 1.726
2029 13.102 4.328
2030 18.580 6.956
2031 24.035 9.583
2032 29.420 12.189
2033 34.704 14.763
2034 39.874 17.305
2035 44.938 19.826
2036 49.921 22.338
2037 54.861 24.858
2038 59.806 27.407
2039 64.806 30.008
2040 69.911 32.684
2041 75.170 35.463
2042 80.623 38.372
2043 86.300 41.436
2044 92.210 44.663
2045 98.331 48.045
2046 104.610 51.550
2047 110.950 55.125
2048 117.214 58.686
2049 123.213 62.119
2050 128.712 65.279
2051 133.428 68.000
2052 137.048 70.103
2053 139.239 71.408
2054 139.650 71.737
2055 137.925 70.912
2056 133.726 68.765
2057 126.758 65.153
2058 116.808 59.978
2059 103.784 53.208
2060 87.749 44.883
2061 68.962 35.142
2062 47.889 24.227
2063 25.188 12.483
2064 1.663 0.322
2065 -21.827 -11.823
2066 -44.458 -23.537
2067 -65.513 -34.464
2068 -84.424 -44.325
2069 -100.787 -52.925
2070 -114.362 -60.143
2071 -125.056 -65.921
2072 -132.904 -70.264
2073 -138.052 -73.229
2074 -140.735 -74.927
2075 -141.249 -75.500
2076 -139.919 -75.107
2077 -137.066 -73.909
2078 -132.991 -72.056
2079 -127.965 -69.676
2080 -122.223 -66.877
2081 -115.968 -63.750
2082 -109.377 -60.373
2083 -102.609 -56.824
2084 -95.810 -53.180
2085 -89.122 -49.517
2086 -82.681 -45.914
2087 -76.608 -42.446
2088 -70.995 -39.174
2089 -65.903 -36.146
2090 -61.353 -33.388
2091 -57.326 -30.906
2092 -53.764 -28.688
2093 -50.573 -26.698
2094 -47.641 -24.890
2095 -44.855 -23.210
2096 -42.108 -21.606
2097 -39.299 -20.025
2098 -36.341 -18.416
2099 -33.170 -16.726
2100 -29.746 -14.909
2101 -26.053 -12.932
2102 -22.090 -10.784
2103 -17.871 -8.472
2104 -13.418 -6.014
2105 -8.766 -3.435
2106 -3.959 -0.766
2107 0.959 1.960
2108 5.943 4.715
2109 10.957 7.471
2110 15.971 10.205
2111 20.955 12.896
2112 25.895 15.530
2113 30.787 18.105
2114 35.645 20.639
2115 40.492 23.163
2116 45.353 25.714
2117 50.253 28.324
2118 55.218 31.021
2119 60.265 33.821
2120 65.407 36.730
2121 70.659 39.748
2122 76.043 42.873
2123 81.594 46.112
2124 87.346 49.472
2125 93.322 52.954
2126 99.515 56.545
2127 105.879 60.206
2128 112.332 63.878
2129 118.763 67.488
2130 125.034 70.957
2131 130.974 74.203
2132 136.377 77.134
2133 141.003 79.641
2134 144.576 81.593
2135 146.792 82.836
2136 147.324 83.194
2137 145.830 82.476
2138 141.971 80.482
2139 135.439 77.028
2140 125.988 71.978
2141 113.474 65.264
2142 97.906 56.908
2143 79.488 47.036
2144 58.642 35.878
2145 35.996 23.768
2146 12.341 11.117
2147 -11.448 -1.627
2148 -34.506 -14.014
2149 -56.055 -25.637
2150 -75.456 -36.158
2151 -92.241 -45.329
2152 -106.116 -52.990
2153 -116.948 -59.062
2154 -124.748 -63.551
2155 -129.660 -66.537
2156 -131.932 -68.160
2157 -131.890 -68.598
2158 -129.895 -68.041
2159 -126.312 -66.678
2160 -121.491 -64.679
2161 -115.753 -62.197
2162 -109.388 -59.361
2163 -102.646 -56.285
2164 -95.747 -53.066
2165 -88.883 -49.790
2166 -82.216 -46.533
2167 -75.884 -43.368
2168 -70.002 -40.358
2169 -64.655 -37.556
2170 -59.896 -35.005
2171 -55.741 -32.731
2172 -52.183 -30.745
2173 -49.189 -29.044
2174 -46.703 -27.607
2175 -44.640 -26.404
2176 -42.895 -25.395
2177 -41.345 -24.526
2178 -39.863 -23.735
2179 -38.316 -22.956
2180 -36.581 -22.121
2181 -34.547 -21.171
2182 -32.131 -20.056
2183 -29.277 -18.739
2184 -25.954 -17.196
2185 -22.163 -15.422
2186 -17.939 -13.433
2187 -13.345 -11.255
2188 -8.462 -8.920
2189 -3.372 -6.464
2190 1.852 -3.920
2191 7.145 -1.315
2192 12.454 1.331
2193 17.738 4.006
2194 22.973 6.701
2195 28.149 9.414
2196 33.266 12.149
2197 38.329 14.915
2198 43.366 17.730
2199 48.424 20.617
2200 53.567 23.606
2201 58.859 26.723
2202 64.350 29.983
2203 70.071 33.383
2204 76.030 36.905
2205 82.210 40.523
2206 88.573 44.202
2207 95.053 47.898
2208 101.556 51.554
2209 107.945 55.098
2210 114.027 58.437
2211 119.558 61.458
2212 124.243 64.020
2213 127.751 65.959
2214 129.728 67.098
2215 129.817 67.255
2216 127.663 66.250
2217 122.929 63.915
2218 115.339 60.103
2219 104.716 54.715
2220 91.021 47.723
2221 74.393 39.193
2222 55.174 29.303
2223 33.917 18.339
2224 11.355 6.683
2225 -11.662 -5.216
2226 -34.260 -16.893
2227 -55.616 -27.908
2228 -75.028 -37.888
2229 -91.952 -46.548
2230 -106.024 -53.701
2231 -117.056 -59.252
2232 -125.022 -63.190
2233 -130.027 -65.576
2234 -132.282 -66.527
2235 -132.074 -66.201
2236 -129.742 -64.784
2237 -125.654 -62.474
2238 -120.192 -59.476
2239 -113.724 -55.983
2240 -106.591 -52.172
2241 -99.090 -48.199
2242 -91.473 -44.191
2243 -83.945 -40.258
2244 -76.675 -36.489
2245 -69.803 -32.955
2246 -63.447 -29.716
2247 -57.695 -26.820
2248 -52.601 -24.304
2249 -48.185 -22.185
2250 -44.427 -20.459
2251 -41.265 -19.094
2252 -38.606 -18.033
2253 -36.327 -17.197
2254 -34.289 -16.491
2255 -32.346 -15.814
2256 -30.363 -15.077
2257 -28.216 -14.208
2258 -25.804 -13.155
2259 -23.041 -11.883
2260 -19.869 -10.372
2261 -16.260 -8.610
2262 -12.209 -6.602
2263 -7.735 -4.369
2264 -2.877 -1.944
2265 2.307 0.634
2266 7.733 3.316
2267 13.305 6.053
2268 18.921 8.801
2269 24.500 11.526
2270 29.981 14.210
2271 35.334 16.851
2272 40.553 19.461
2273 45.655 22.068
2274 50.678 24.705
2275 55.671 27.401
2276 60.686 30.179
2277 65.769 33.053
2278 70.957 36.032
2279 76.278 39.118
2280 81.754 42.303
2281 87.403 45.576
2282 93.231 48.925
2283 99.231 52.341
2284 105.370 55.810
2285 111.586 59.304
2286 117.770 62.771
2287 123.769 66.141
2288 129.387 69.313
2289 134.396 72.161
2290 138.533 74.537
2291 141.501 76.273
2292 142.970 77.188
2293 142.587 77.092
2294 139.990 75.797
2295 134.835 73.129
2296 126.830 68.938
2297 115.768 63.124
2298 101.574 55.651
2299 84.351 46.577
2300 64.408 36.067
2301 42.274 24.399
2302 18.662 11.950
2303 -5.585 -0.836
2304 -29.581 -13.496
2305 -52.479 -25.592
2306 -73.544 -36.747
2307 -92.206 -46.671
2308 -108.081 -55.167
2309 -120.966 -62.133
2310 -130.825 -67.547
2311 -137.753 -71.453
2312 -141.951 -73.949
2313 -143.691 -75.170
2314 -143.283 -75.271
2315 -141.054 -74.412
2316 -137.332 -72.755
2317 -132.432 -70.460
2318 -126.647 -67.679
2319 -120.238 -64.551
2320 -113.429 -61.198
2321 -106.413 -57.724
2322 -99.359 -54.215
2323 -92.422 -50.746
2324 -85.739 -47.378
2325 -79.422 -44.168
2326 -73.557 -41.161
2327 -68.208 -38.387
2328 -63.414 -35.862
2329 -59.185 -33.589
2330 -55.506 -31.562
2331 -52.330 -29.764
2332 -49.585 -28.168
2333 -47.162 -26.734
2334 -44.926 -25.411
2335 -42.722 -24.135
2336 -40.397 -22.840
2337 -37.825 -21.465
2338 -34.913 -19.959
2339 -31.610 -18.285
2340 -27.896 -16.422
2341 -23.776 -14.364
2342 -19.275 -12.115
2343 -14.432 -9.686
2344 -9.297 -7.091
2345 -3.937 -4.350
2346 1.571 -1.493
2347 7.142 1.438
2348 12.687 4.392
2349 18.128 7.316
2350 23.409 10.164
2351 28.506 12.911
2352 33.426 15.554
2353 38.192 18.101
2354 42.837 20.574
2355 47.399 22.999
2356 51.915 25.400
2357 56.426 27.797
2358 60.974 30.211
2359 65.611 32.664
2360 70.388 35.178
2361 75.360 37.781
2362 80.569 40.505
2363 86.044 43.385
2364 91.804 46.443
2365 97.851 49.691
2366 104.165 53.115
2367 110.682 56.679
2368 117.291 60.322
2369 123.840 63.963
2370 130.138 67.501
2371 135.953 70.813
2372 141.013 73.752
2373 145.011 76.150
2374 147.599 77.822
2375 148.402 78.574
2376 147.026 78.198
2377 143.081 76.494
2378 136.218 73.278
2379 126.173 68.414
2380 112.816 61.833
2381 96.192 53.556
2382 76.554 43.703
2383 54.375 32.505
2384 30.338 20.298
2385 5.287 7.499
2386 -19.855 -5.428
2387 -44.181 -18.024
2388 -66.881 -29.878
2389 -87.297 -40.647
2390 -104.953 -50.077
2391 -119.559 -57.997
2392 -131.003 -64.323
2393 -139.326 -69.048
2394 -144.692 -72.239
2395 -147.360 -74.016
2396 -147.654 -74.535
2397 -145.936 -73.973
2398 -142.576 -72.518
2399 -137.933 -70.359
2400 -132.331 -67.672
2401 -126.055 -64.613
2402 -119.349 -61.313
2403 -112.417 -57.879
2404 -105.432 -54.404
2405 -98.538 -50.961
2406 -91.861 -47.610
2407 -85.511 -44.406
2408 -79.580 -41.387
2409 -74.144 -38.589
2410 -69.256 -36.040
2411 -64.932 -33.759
2412 -61.158 -31.755
2413 -57.879 -30.016
2414 -55.008 -28.508
2415 -52.430 -27.178
2416 -50.020 -25.958
2417 -47.651 -24.777
2418 -45.206 -23.566
2419 -42.577 -22.261
2420 -39.682 -20.809
2421 -36.459 -19.175
2422 -32.874 -17.344
2423 -28.915 -15.320
2424 -24.593 -13.113
2425 -19.931 -10.743
2426 -14.969 -8.235
2427 -9.766 -5.627
2428 -4.396 -2.958
2429 1.055 -0.270
2430 6.505 2.404
2431 11.886 5.034
2432 17.140 7.598
2433 22.231 10.082
2434 27.149 12.488
2435 31.915 14.834
2436 36.568 17.153
2437 41.147 19.481
2438 45.687 21.850
2439 50.216 24.285
2440 54.769 26.802
2441 59.390 29.416
2442 64.135 32.138
2443 69.060 34.981
2444 74.223 37.958
2445 79.670 41.087
2446 85.427 44.378
2447 91.494 47.827
2448 97.843 51.413
2449 104.422 55.093
2450 111.157 58.812
2451 117.961 62.507
2452 124.727 66.117
2453 131.323 69.576
2454 137.585 72.809
2455 143.316 75.726
2456 148.276 78.217
2457 152.181 80.148
2458 154.703 81.360
2459 155.482 81.674
2460 154.143 80.901
2461 150.325 78.857
2462 143.704 75.377
2463 134.027 70.324
2464 121.144 63.615
2465 105.037 55.238
2466 85.860 45.275
2467 63.968 33.918
2468 39.931 21.469
2469 14.519 8.325
2470 -11.361 -5.052
2471 -36.749 -18.178
2472 -60.733 -30.598
2473 -82.536 -41.917
2474 -101.562 -51.831
2475 -117.421 -60.138
2476 -129.924 -66.739
2477 -139.069 -71.628
2478 -145.016 -74.880
2479 -148.044 -76.632
2480 -148.509 -77.063
2481 -146.801 -76.369
2482 -143.317 -74.756
2483 -138.438 -72.423
2484 -132.516 -69.554
2485 -125.864 -66.313
2486 -118.760 -62.835
2487 -111.437 -59.234
2488 -104.091 -55.605
2489 -96.881 -52.023
2490 -89.938 -48.553
2491 -83.375 -45.244
2492 -77.292 -42.142
2493 -71.766 -39.288
2494 -66.845 -36.717
2495 -62.535 -34.450
2496 -58.802 -32.482
2497 -55.578 -30.788
2498 -52.773 -29.324
2499 -50.287 -28.038
2500 -48.005 -26.879
2501 -45.809 -25.787
2502 -43.577 -24.695
2503 -41.191 -23.533
2504 -38.546 -22.230
2505 -35.562 -20.728
2506 -32.189 -18.983
2507 -28.413 -16.977
2508 -24.248 -14.715
2509 -19.728 -12.226
2510 -14.905 -9.554
2511 -9.844 -6.751
2512 -4.619 -3.872
2513 0.693 -0.973
2514 6.019 1.895
2515 11.303 4.694
2516 16.504 7.400
2517 21.600 10.008
2518 26.584 12.526
2519 31.465 14.970
2520 36.266 17.365
2521 41.021 19.741
2522 45.773 22.132
2523 50.573 24.571
2524 55.477 27.089
2525 60.547 29.719
2526 65.842 32.496
2527 71.412 35.451
2528 77.288 38.600
2529 83.477 41.943
2530 89.965 45.467
2531 96.712 49.139
2532 103.647 52.907
2533 110.668 56.700
2534 117.636 60.430
2535 124.379 64.000
2536 130.680 67.294
2537 136.268 70.181
2538 140.825 72.507
2539 143.996 74.101
2540 145.405 74.781
2541 144.673 74.370
2542 141.437 72.703
2543 135.376 69.641
2544 126.242 65.075
2545 113.899 58.944
2546 98.355 51.249
2547 79.799 42.072
2548 58.627 31.589
2549 35.443 20.079
2550 11.036 7.920
2551 -13.694 -4.448
2552 -37.829 -16.568
2553 -60.509 -28.007
2554 -80.999 -38.392
2555 -98.729 -47.431
2556 -113.319 -54.929
2557 -124.585 -60.787
2558 -132.525 -64.995
2559 -137.297 -67.617
2560 -139.177 -68.785
2561 -138.525 -68.672
2562 -135.748 -67.473
2563 -131.255 -65.391
2564 -125.436 -62.619
2565 -118.647 -59.341
2566 -111.208 -55.725
2567 -103.404 -51.923
2568 -95.486 -48.068
2569 -87.677 -44.278
2570 -80.175 -40.651
2571 -73.143 -37.265
2572 -66.705 -34.181
2573 -60.945 -31.436
2574 -55.908 -29.042
2575 -51.597 -26.993
2576 -47.970 -25.263
2577 -44.951 -23.815
2578 -42.440 -22.599
2579 -40.321 -21.560
2580 -38.463 -20.633
2581 -36.727 -19.752
2582 -34.971 -18.850
2583 -33.068 -17.866
2584 -30.903 -16.744
2585 -28.378 -15.432
2586 -25.422 -13.890
2587 -21.996 -12.096
2588 -18.097 -10.043
2589 -13.753 -7.737
2590 -9.006 -5.198
2591 -3.910 -2.456
2592 1.471 0.449
2593 7.072 3.473
2594 12.825 6.566
2595 18.670 9.684
2596 24.555 12.791
2597 30.438 15.858
2598 36.289 18.871
2599 42.097 21.825
2600 47.867 24.731
2601 53.615 27.612
2602 59.367 30.499
2603 65.162 33.432
2604 71.043 36.454
2605 77.058 39.602
2606 83.243 42.900
2607 89.623 46.359
2608 96.198 49.970
2609 102.938 53.703
2610 109.781 57.510
2611 116.626 61.322
2612 123.329 65.049
2613 129.688 68.574
2614 135.447 71.761
2615 140.295 74.451
2616 143.885 76.468
2617 145.845 77.626
2618 145.792 77.736
2619 143.353 76.617
2620 138.183 74.095
2621 130.005 70.022
2622 118.633 64.290
2623 104.012 56.860
2624 86.258 47.775
2625 65.690 37.186
2626 42.849 25.361
2627 18.478 12.674
2628 -6.551 -0.426
2629 -31.320 -13.462
2630 -54.958 -25.974
2631 -76.709 -37.558
2632 -95.975 -47.890
2633 -112.333 -56.737
2634 -125.541 -63.962
2635 -135.531 -69.516
2636 -142.375 -73.425
2637 -146.270 -75.784
2638 -147.504 -76.738
2639 -146.430 -76.476
2640 -143.434 -75.210
2641 -138.909 -73.158
2642 -133.238 -70.526
2643 -126.772 -67.495
2644 -119.810 -64.220
2645 -112.597 -60.823
2646 -105.324 -57.408
2647 -98.148 -54.055
2648 -91.201 -50.826
2649 -84.594 -47.763
2650 -78.417 -44.892
2651 -72.740 -42.224
2652 -67.601 -39.757
2653 -63.003 -37.473
2654 -58.908 -35.341
2655 -55.237 -33.324
2656 -51.888 -31.380
2657 -48.749 -29.470
2658 -45.720 -27.564
2659 -42.714 -25.638
2660 -39.655 -23.673
2661 -36.467 -21.651
2662 -33.079 -19.553
2663 -29.422 -17.357
2664 -25.435 -15.042
2665 -21.075 -12.585
2666 -16.326 -9.967
2667 -11.204 -7.185
2668 -5.761 -4.254
2669 -0.076 -1.212
2670 5.759 1.893
2671 11.658 5.014
2672 17.545 8.115
2673 23.362 11.174
2674 29.063 14.178
2675 34.619 17.118
2676 40.012 19.987
2677 45.243 22.774
2678 50.322 25.472
2679 55.269 28.079
2680 60.118 30.611
2681 64.917 33.103
2682 69.730 35.606
2683 74.628 38.175
2684 79.684 40.863
2685 84.960 43.706
2686 90.501 46.725
2687 96.326 49.921
2688 102.432 53.285
2689 108.783 56.791
2690 115.308 60.395
2691 121.898 64.033
2692 128.405 67.627
2693 134.643 71.079
2694 140.384 74.272
2695 145.358 77.065
2696 149.248 79.290
2697 151.699 80.763
2698 152.323 81.284
2699 150.723 80.646
2700 146.520 78.652
2701 139.380 75.122
2702 129.055 69.915
2703 115.413 62.950
2704 98.482 54.234
2705 78.501 43.881
2706 55.938 32.126
2707 31.491 19.323
2708 6.026 5.918
2709 -19.507 -7.598
2710 -44.174 -20.729
2711 -67.142 -33.019
2712 -87.741 -44.089
2713 -105.488 -53.661
2714 -120.098 -61.567
2715 -131.465 -67.747
2716 -139.641 -72.226
2717 -144.801 -75.098
2718 -147.209 -76.506
2719 -147.192 -76.629
2720 -145.121 -75.667
2721 -141.376 -73.822
2722 -136.326 -71.289
2723 -130.312 -68.249
2724 -123.643 -64.864
2725 -116.582 -61.270
2726 -109.344 -57.572
2727 -102.098 -53.856
2728 -94.985 -50.189
2729 -88.130 -46.639
2730 -81.644 -43.269
2731 -75.624 -40.135
2732 -70.140 -37.275
2733 -65.232 -34.710
2734 -60.904 -32.439
2735 -57.130 -30.439
2736 -53.849 -28.664
2737 -50.967 -27.058
2738 -48.372 -25.560
2739 -45.944 -24.113
2740 -43.564 -22.664
2741 -41.114 -21.166
2742 -38.483 -19.571
2743 -35.573 -17.835
2744 -32.315 -15.930
2745 -28.673 -13.842
2746 -24.640 -11.573
2747 -20.235 -9.140
2748 -15.504 -6.569
2749 -10.511 -3.894
2750 -5.332 -1.150
2751 -0.046 1.627
2752 5.278 4.412
2753 10.584 7.187
2754 15.836 9.940
2755 21.018 12.675
2756 26.128 15.406
2757 31.177 18.156
2758 36.184 20.947
2759 41.176 23.797
2760 46.185 26.715
2761 51.252 29.705
2762 56.426 32.772
2763 61.763 35.923
2764 67.323 39.175
2765 73.164 42.551
2766 79.326 46.073
2767 85.814 49.746
2768 92.599 53.553
2769 99.616 57.450
2770 106.771 61.381
2771 113.938 65.274
2772 120.966 69.056
2773 127.674 72.640
2774 133.850 75.924
2775 139.245 78.783
2776 143.572 81.068
2777 146.508 82.602
2778 147.701 83.195
2779 146.790 82.648
2780 143.423 80.776
2781 137.287 77.419
2782 128.143 72.460
2783 115.866 65.842
2784 100.485 57.587
2785 82.211 47.811
2786 61.467 36.733
2787 38.879 24.679
2788 15.240 12.058
2789 -8.579 -0.673
2790 -31.715 -13.059
2791 -53.393 -24.698
2792 -72.979 -35.269
2793 -90.013 -44.541
2794 -104.212 -52.381
2795 -115.465 -58.749
2796 -123.809 -63.683
2797 -129.405 -67.285
2798 -132.510 -69.704
2799 -133.448 -71.119
2800 -132.570 -71.713
2801 -130.236 -71.659
2802 -126.793 -71.109
2803 -122.555 -70.194
2804 -117.793 -69.022
2805 -112.724 -67.679
2806 -107.515 -66.229
2807 -102.283 -64.720
2808 -97.109 -63.174
2809 -92.053 -61.600
2810 -87.165 -59.994
2811 -82.486 -58.352
2812 -78.052 -56.674
2813 -73.889 -54.961
2814 -70.003 -53.216
2815 -66.373 -51.440
2816 -62.949 -49.622
2817 -59.652 -47.731
2818 -56.384 -45.719
2819 -53.044 -43.535
2820 -49.542 -41.140
2821 -45.817 -38.519
2822 -41.832 -35.678
2823 -37.575 -32.645
2824 -33.046 -29.447
2825 -28.255 -26.102
2826 -23.215 -22.624
2827 -17.942 -19.028
2828 -12.466 -15.339
2829 -6.831 -11.597
2830 -1.096 -7.844
2831 4.678 -4.119
2832 10.428 -0.455
2833 16.104 3.121
2834 21.668 6.590
2835 27.104 9.941
2836 32.411 13.172
2837 37.602 16.296
2838 42.696 19.332
2839 47.721 22.309
2840 52.706 25.257
2841 57.682 28.207
2842 62.681 31.189
2843 67.742 34.233
2844 72.910 37.371
2845 78.231 40.633
2846 83.752 44.046
2847 89.501 47.628
2848 95.482 51.376
2849 101.655 55.256
2850 107.931 59.198
2851 114.172 63.105
2852 120.199 66.857
2853 125.799 70.326
2854 130.730 73.371
2855 134.725 75.843
2856 137.488 77.593
2857 138.694 78.465
2858 137.993 78.299
2859 135.032 76.932
2860 129.482 74.210
2861 121.065 70.009
2862 109.604 64.260
2863 95.066 56.960
2864 77.610 48.199
2865 57.612 38.166
2866 35.665 27.152
2867 12.532 15.526
2868 -10.918 3.702
2869 -33.805 -7.904
2870 -55.319 -18.905
2871 -74.771 -28.974
2872 -91.634 -37.849
2873 -105.550 -45.348
2874 -116.336 -51.366
2875 -123.976 -55.875
2876 -128.596 -58.917
2877 -130.433 -60.587
2878 -129.809 -61.016
2879 -127.103 -60.363
2880 -122.719 -58.805
2881 -117.056 -56.524
2882 -110.478 -53.693
2883 -103.302 -50.467
2884 -95.795 -46.984
2885 -88.180 -43.372
2886 -80.649 -39.741
2887 -73.372 -36.190
2888 -66.499 -32.803
2889 -60.155 -29.649
2890 -54.433 -26.785
2891 -49.391 -24.247
2892 -45.046 -22.060
2893 -41.379 -20.222
2894 -38.331 -18.706
2895 -35.807 -17.459
2896 -33.684 -16.406
2897 -31.813 -15.464
2898 -30.037 -14.553
2899 -28.205 -13.601
2900 -26.185 -12.545
2901 -23.873 -11.336
2902 -21.198 -9.934
2903 -18.117 -8.315
2904 -14.616 -6.470
2905 -10.709 -4.409
2906 -6.434 -2.146
2907 -1.846 0.297
2908 2.986 2.901
2909 7.988 5.641
2910 13.091 8.487
2911 18.229 11.397
2912 23.351 14.321
2913 28.428 17.209
2914 33.455 20.018
2915 38.455 22.726
2916 43.474 25.335
2917 48.573 27.878
2918 53.821 30.408
2919 59.275 32.987
2920 64.975 35.662
2921 70.933 38.463
2922 77.140 41.395
2923 83.562 44.442
2924 90.151 47.583
2925 96.845 50.788
2926 103.561 54.019
2927 110.191 57.229
2928 116.593 60.352
2929 122.579 63.298
2930 127.917 65.949
2931 132.322 68.155
2932 135.463 69.734
2933 136.971 70.487
2934 136.456 70.209
2935 133.541 68.703
2936 127.892 65.788
2937 119.251 61.316
2938 107.467 55.202
2939 92.534 47.442
2940 74.616 38.125
2941 54.076 27.441
2942 31.486 15.685
2943 7.597 3.242
2944 -16.722 -9.443
2945 -40.567 -21.907
2946 -63.090 -33.714
2947 -83.569 -44.487
2948 -101.451 -53.928
2949 -116.374 -61.834
2950 -128.163 -68.109
2951 -136.816 -72.752
2952 -142.472 -75.841
2953 -145.377 -77.498
2954 -145.841 -77.873
2955 -144.205 -77.125
2956 -140.816 -75.420
2957 -136.008 -72.922
2958 -130.089 -69.792
2959 -123.337 -66.184
2960 -116.003 -62.246
2961 -108.315 -58.114
2962 -100.480 -53.921
2963 -92.689 -49.789
2964 -85.115 -45.831
2965 -77.910 -42.137
2966 -71.197 -38.778
2967 -65.066 -35.794
2968 -59.573 -33.203
2969 -54.743 -30.996
2970 -50.570 -29.151
2971 -47.021 -27.629
2972 -44.028 -26.375
2973 -41.485 -25.319
2974 -39.259 -24.381
2975 -37.197 -23.473
2976 -35.142 -22.506
2977 -32.943 -21.397
2978 -30.470 -20.078
2979 -27.623 -18.497
2980 -24.333 -16.625
2981 -20.568 -14.459
2982 -16.331 -12.015
2983 -11.657 -9.319
2984 -6.608 -6.401
2985 -1.264 -3.297
2986 4.288 -0.050
2987 9.957 3.292
2988 15.666 6.678
2989 21.357 10.066
2990 26.990 13.419
2991 32.542 16.704
2992 37.992 19.896
2993 43.332 22.981
2994 48.565 25.952
2995 53.716 28.817
2996 58.827 31.598
2997 63.958 34.335
2998 69.179 37.075
2999 74.563 39.870
3000 80.174 42.770
3001 86.052 45.810
3002 92.215 49.007
3003 98.654 52.361
3004 105.345 55.860
3005 112.239 59.480
3006 119.256 63.175
3007 126.276 66.882
3008 133.133 70.516
3009 139.609 73.966
3010 145.439 77.089
3011 150.314 79.717
3012 153.883 81.662
3013 155.760 82.724
3014 155.545 82.701
3015 152.850 81.402
3016 147.325 78.659
3017 138.692 74.340
3018 126.771 68.365
3019 111.523 60.714
3020 93.079 51.450
3021 71.773 40.736
3022 48.159 28.838
3023 22.994 16.118
3024 -2.828 3.010
3025 -28.361 -10.021
3026 -52.696 -22.524
3027 -75.037 -34.099
3028 -94.761 -44.426
3029 -111.445 -53.278
3030 -124.881 -60.526
3031 -135.050 -66.144
3032 -142.092 -70.190
3033 -146.261 -72.785
3034 -147.885 -74.090
3035 -147.319 -74.285
3036 -144.930 -73.556
3037 -141.071 -72.075
3038 -136.069 -69.996
3039 -130.216 -67.455
3040 -123.764 -64.573
3041 -116.925 -61.459
3042 -109.883 -58.209
3043 -102.797 -54.912
3044 -95.810 -51.636
3045 -89.046 -48.438
3046 -82.612 -45.358
3047 -76.598 -42.430
3048 -71.066 -39.683
3049 -66.051 -37.142
3050 -61.566 -34.828
3051 -57.593 -32.748
3052 -54.083 -30.889
3053 -50.961 -29.219
3054 -48.127 -27.685
3055 -45.464 -26.223
3056 -42.847 -24.768
3057 -40.148 -23.256
3058 -37.256 -21.633
3059 -34.082 -19.855
3060 -30.572 -17.896
3061 -26.708 -15.745
3062 -22.509 -13.410
3063 -18.017 -10.918
3064 -13.287 -8.305
3065 -8.383 -5.607
3066 -3.368 -2.863
3067 1.699 -0.112
3068 6.763 2.611
3069 11.773 5.275
3070 16.685 7.856
3071 21.466 10.343
3072 26.106 12.738
3073 30.619 15.055
3074 35.038 17.321
3075 39.405 19.563
3076 43.762 21.808
3077 48.155 24.079
3078 52.637 26.406
3079 57.270 28.827
3080 62.126 31.374
3081 67.275 34.080
3082 72.766 36.964
3083 78.625 40.040
3084 84.851 43.307
3085 91.421 46.754
3086 98.294 50.360
3087 105.412 54.101
3088 112.707 57.947
3089 120.103 61.870
3090 127.508 65.826
3091 134.786 69.749
3092 141.749 73.536
3093 148.154 77.058
3094 153.710 80.161
3095 158.092 82.667
3096 160.948 84.387
3097 161.905 85.123
3098 160.581 84.678
3099 156.605 82.860
3100 149.638 79.490
3101 139.398 74.411
3102 125.701 67.515
3103 108.502 58.761
3104 87.947 48.208
3105 64.408 36.041
3106 38.498 22.579
3107 11.053 8.265
3108 -16.939 -6.381
3109 -44.438 -20.813
3110 -70.469 -34.524
3111 -94.205 -47.091
3112 -115.025 -58.195
3113 -132.531 -67.632
3114 -146.532 -75.296
3115 -157.026 -81.176
3116 -164.159 -85.337
3117 -168.192 -87.901
3118 -169.467 -89.027
3119 -168.379 -88.899
3120 -165.341 -87.711
3121 -160.765 -85.657
3122 -155.038 -82.924
3123 -148.493 -79.684
3124 -141.400 -76.084
3125 -133.964 -72.248
3126 -126.349 -68.275
3127 -118.696 -64.247
3128 -111.142 -60.239
3129 -103.815 -56.319
3130 -96.841 -52.557
3131 -90.331 -49.018
3132 -84.377 -45.757
3133 -79.032 -42.809
3134 -74.311 -40.187
3135 -70.179 -37.877
3136 -66.564 -35.845
3137 -63.353 -34.040
3138 -60.408 -32.405
3139 -57.576 -30.880
3140 -54.710 -29.399
3141 -51.683 -27.901
3142 -48.398 -26.333
3143 -44.788 -24.651
3144 -40.811 -22.819
3145 -36.446 -20.810
3146 -31.689 -18.607
3147 -26.560 -16.206
3148 -21.092 -13.613
3149 -15.336 -10.839
3150 -9.360 -7.899
3151 -3.246 -4.817
3152 2.922 -1.621
3153 9.063 1.649
3154 15.107 4.950
3155 20.998 8.240
3156 26.694 11.478
3157 32.169 14.630
3158 37.413 17.669
3159 42.425 20.572
3160 47.221 23.329
3161 51.825 25.940
3162 56.269 28.421
3163 60.593 30.796
3164 64.851 33.106
3165 69.105 35.403
3166 73.431 37.738
3167 77.905 40.162
3168 82.608 42.722
3169 87.621 45.465
3170 93.011 48.431
3171 98.821 51.646
3172 105.060 55.120
3173 111.700 58.844
3174 118.678 62.780
3175 125.901 66.867
3176 133.249 71.021
3177 140.574 75.145
3178 147.702 79.135
3179 154.423 82.884
3180 160.485 86.270
3181 165.591 89.152
3182 169.398 91.355
3183 171.524 92.678
3184 171.566 92.901
3185 169.115 91.800
3186 163.784 89.165
3187 155.230 84.822
3188 143.194 78.648
3189 127.546 70.589
3190 108.341 60.682
3191 85.848 49.063
3192 60.577 35.987
3193 33.268 21.828
3194 4.855 7.059
3195 -23.618 -7.782
3196 -51.107 -22.151
3197 -76.661 -35.544
3198 -99.495 -47.550
3199 -119.028 -57.870
3200 -134.905 -66.325
3201 -146.996 -72.850
3202 -155.374 -77.480
3203 -160.280 -80.337
3204 -162.070 -81.601
3205 -161.173 -81.494
3206 -158.047 -80.259
3207 -153.148 -78.140
3208 -146.907 -75.370
3209 -139.717 -72.155
3210 -131.922 -68.663
3211 -123.819 -65.027
3212 -115.665 -61.351
3213 -107.675 -57.715
3214 -100.021 -54.186
3215 -92.834 -50.822
3216 -86.205 -47.672
3217 -80.196 -44.771
3218 -74.836 -42.142
3219 -70.123 -39.793
3220 -66.021 -37.721
3221 -62.472 -35.907
3222 -59.400 -34.317
3223 -56.705 -32.899
3224 -54.261 -31.583
3225 -51.928 -30.286
3226 -49.556 -28.925
3227 -47.005 -27.427
3228 -44.152 -25.726
3229 -40.896 -23.773
3230 -37.169 -21.537
3231 -32.937 -19.015
3232 -28.205 -16.227
3233 -23.013 -13.208
3234 -17.429 -10.006
3235 -11.535 -6.674
3236 -5.420 -3.265
3237 0.825 0.166
3238 7.110 3.569
3239 13.352 6.900
3240 19.476 10.126
3241 25.418 13.226
3242 31.131 16.195
3243 36.594 19.042
3244 41.814 21.782
3245 46.824 24.436
3246 51.674 27.022
3247 56.433 29.561
3248 61.177 32.077
3249 65.980 34.599
3250 70.912 37.160
3251 76.034 39.798
3252 81.395 42.546
3253 87.030 45.433
3254 92.954 48.480
3255 99.160 51.699
3256 105.612 55.089
3257 112.237 58.624
3258 118.925 62.247
3259 125.539 65.874
3260 131.910 69.397
3261 137.828 72.689
3262 143.034 75.600
3263 147.213 77.952
3264 149.999 79.548
3265 150.986 80.178
3266 149.758 79.630
3267 145.911 77.697
3268 139.094 74.194
3269 129.034 68.976
3270 115.578 61.963
3271 98.724 53.159
3272 78.659 42.669
3273 55.790 30.703
3274 30.757 17.590
3275 4.404 3.763
3276 -22.300 -10.282
3277 -48.362 -24.031
3278 -72.859 -37.000
3279 -95.007 -48.773
3280 -114.208 -59.025
3281 -130.064 -67.538
3282 -142.389 -74.207
3283 -151.182 -79.023
3284 -156.594 -82.060
3285 -158.896 -83.448
3286 -158.443 -83.361
3287 -155.640 -82.004
3288 -150.906 -79.596
3289 -144.657 -76.361
3290 -137.290 -72.514
3291 -129.171 -68.262
3292 -120.631 -63.795
3293 -111.957 -59.285
3294 -103.394 -54.871
3295 -95.141 -50.661
3296 -87.354 -46.731
3297 -80.153 -43.131
3298 -73.619 -39.894
3299 -67.793 -37.030
3300 -62.671 -34.530
3301 -58.218 -32.364
3302 -54.373 -30.495
3303 -51.058 -28.875
3304 -48.170 -27.447
3305 -45.583 -26.147
3306 -43.146 -24.898
3307 -40.699 -23.613
3308 -38.082 -22.208
3309 -35.158 -20.606
3310 -31.820 -18.752
3311 -28.004 -16.609
3312 -23.687 -14.164
3313 -18.881 -11.424
3314 -13.629 -8.416
3315 -7.991 -5.176
3316 -2.040 -1.753
3317 4.140 1.797
3318 10.468 5.413
3319 16.872 9.033
3320 23.290 12.601
3321 29.675 16.077
3322 35.990 19.442
3323 42.212 22.694
3324 48.332 25.842
3325 54.357 28.913
3326 60.312 31.946
3327 66.239 34.988
3328 72.185 38.084
3329 78.206 41.271
3330 84.351 44.578
3331 90.669 48.028
3332 97.195 51.636
3333 103.944 55.399
3334 110.910 59.297
3335 118.060 63.292
3336 125.328 67.331
3337 132.606 71.342
3338 139.735 75.232
3339 146.497 78.879
3340 152.622 82.138
3341 157.797 84.842
3342 161.666 86.809
3343 163.842 87.850
3344 163.923 87.772
3345 161.505 86.380
3346 156.210 83.492
3347 147.714 78.951
3348 135.786 72.644
3349 120.336 64.525
3350 101.452 54.639
3351 79.442 43.144
3352 54.848 30.316
3353 28.432 16.544
3354 1.123 2.306
3355 -26.076 -11.882
3356 -52.188 -25.511
3357 -76.352 -38.135
3358 -97.883 -49.402
3359 -116.291 -59.068
3360 -131.290 -66.990
3361 -142.792 -73.122
3362 -150.881 -77.503
3363 -155.791 -80.245
3364 -157.851 -81.517
3365 -157.454 -81.517
3366 -155.011 -80.460
3367 -150.931 -78.561
3368 -145.596 -76.021
3369 -139.345 -73.018
3370 -132.461 -69.697
3371 -125.179 -66.180
3372 -117.695 -62.564
3373 -110.176 -58.933
3374 -102.764 -55.359
3375 -95.585 -51.908
3376 -88.746 -48.632
3377 -82.334 -45.570
3378 -76.405 -42.742
3379 -70.984 -40.141
3380 -66.054 -37.743
3381 -61.572 -35.510
3382 -57.466 -33.400
3383 -53.657 -31.366
3384 -50.055 -29.366
3385 -46.570 -27.359
3386 -43.115 -25.311
3387 -39.605 -23.194
3388 -35.956 -20.982
3389 -32.090 -18.645
3390 -27.933 -16.161
3391 -23.434 -13.515
3392 -18.573 -10.710
3393 -13.372 -7.768
3394 -7.882 -4.727
3395 -2.172 -1.630
3396 3.682 1.483
3397 9.607 4.584
3398 15.537 7.651
3399 21.422 10.677
3400 27.227 13.667
3401 32.936 16.634
3402 38.545 19.590
3403 44.052 22.540
3404 49.470 25.489
3405 54.823 28.438
3406 60.152 31.400
3407 65.506 34.395
3408 70.942 37.456
3409 76.516 40.613
3410 82.277 43.889
3411 88.263 47.301
3412 94.491 50.846
3413 100.961 54.509
3414 107.649 58.260
3415 114.505 62.057
3416 121.438 65.847
3417 128.317 69.556
3418 134.961 73.094
3419 141.145 76.351
3420 146.602 79.197
3421 151.019 81.480
3422 154.041 83.022
3423 155.288 83.634
3424 154.369 83.122
3425 150.902 81.296
3426 144.540 77.981
3427 135.006 73.037
3428 122.137 66.377
3429 105.918 57.989
3430 86.522 47.954
3431 64.336 36.459
3432 39.968 23.807
3433 14.222 10.403
3434 -11.975 -3.279
3435 -37.661 -16.745
3436 -61.943 -29.527
3437 -84.062 -41.234
3438 -103.438 -51.564
3439 -119.689 -60.318
3440 -132.626 -67.400
3441 -142.238 -72.800
3442 -148.666 -76.589
3443 -152.168 -78.894
3444 -153.084 -79.878
3445 -151.799 -79.723
3446 -148.717 -78.618
3447 -144.234 -76.751
3448 -138.714 -74.302
3449 -132.472 -71.437
3450 -125.769 -68.300
3451 -118.813 -65.003
3452 -111.769 -61.631
3453 -104.780 -58.256
3454 -97.972 -54.940
3455 -91.458 -51.739
3456 -85.333 -48.698
3457 -79.668 -45.854
3458 -74.503 -43.236
3459 -69.846 -40.856
3460 -65.675 -38.713
3461 -61.937 -36.785
3462 -58.560 -35.038
3463 -55.457 -33.424
3464 -52.536 -31.891
3465 -49.695 -30.385
3466 -46.832 -28.852
3467 -43.840 -27.237
3468 -40.623 -25.483
3469 -37.096 -23.535
3470 -33.189 -21.347
3471 -28.855 -18.895
3472 -24.078 -16.181
3473 -18.875 -13.234
3474 -13.298 -10.104
3475 -7.421 -6.853
3476 -1.336 -3.544
3477 4.852 -0.243
3478 11.043 2.990
3479 17.146 6.109
3480 23.090 9.085
3481 28.824 11.913
3482 34.319 14.601
3483 39.566 17.168
3484 44.578 19.636
3485 49.382 22.028
3486 54.023 24.373
3487 58.560 26.708
3488 63.067 29.088
3489 67.626 31.578
3490 72.328 34.243
3491 77.260 37.141
3492 82.495 40.309
3493 88.079 43.767
3494 94.024 47.506
3495 100.314 51.493
3496 106.903 55.678
3497 113.724 60.001
3498 120.689 64.397
3499 127.680 68.790
3500 134.552 73.094
3501 141.118 77.197
3502 147.147 80.965
3503 152.358 84.234
3504 156.421 86.811
3505 158.960 88.486
3506 159.581 89.041
3507 157.881 88.265
3508 153.477 85.968
3509 146.031 81.997
3510 135.297 76.256
3511 121.158 68.716
3512 103.672 59.431
3513 83.099 48.557
3514 59.923 36.353
3515 34.842 23.182
3516 8.735 9.498
3517 -17.432 -4.196
3518 -42.700 -17.403
3519 -66.222 -29.680
3520 -87.316 -40.679
3521 -105.496 -50.157
3522 -120.470 -57.983
3523 -132.130 -64.123
3524 -140.527 -68.622
3525 -145.850 -71.586
3526 -148.377 -73.163
3527 -148.447 -73.524
3528 -146.431 -72.850
3529 -142.712 -71.321
3530 -137.668 -69.108
3531 -131.653 -66.376
3532 -124.981 -63.271
3533 -117.920 -59.927
3534 -110.701 -56.462
3535 -103.517 -52.983
3536 -96.533 -49.581
3537 -89.889 -46.331
3538 -83.696 -43.289
3539 -78.037 -40.493
3540 -72.958 -37.967
3541 -68.467 -35.716
3542 -64.537 -33.731
3543 -61.108 -31.988
3544 -58.091 -30.445
3545 -55.379 -29.050
3546 -52.852 -27.741
3547 -50.384 -26.458
3548 -47.852 -25.146
3549 -45.144 -23.758
3550 -42.162 -22.257
3551 -38.827 -20.610
3552 -35.077 -18.786
3553 -30.883 -16.756
3554 -26.244 -14.500
3555 -21.191 -12.018
3556 -15.779 -9.328
3557 -10.076 -6.467
3558 -4.160 -3.482
3559 1.882 -0.432
3560 7.959 2.629
3561 13.989 5.656
3562 19.902 8.616
3563 25.647 11.489
3564 31.190 14.258
3565 36.517 16.916
3566 41.635 19.463
3567 46.575 21.917
3568 51.388 24.308
3569 56.138 26.681
3570 60.902 29.084
3571 65.759 31.566
3572 70.786 34.172
3573 76.041 36.944
3574 81.559 39.909
3575 87.346 43.075
3576 93.380 46.431
3577 99.616 49.947
3578 105.992 53.573
3579 112.423 57.245
3580 118.804 60.889
3581 124.995 64.419
3582 130.814 67.738
3583 136.034 70.728
3584 140.375 73.250
3585 143.505 75.136
3586 145.052 76.198
3587 144.632 76.233
3588 141.874 75.043
3589 136.442 72.449
3590 128.059 68.305
3591 116.536 62.515
3592 101.807 55.053
3593 83.965 45.971
3594 63.309 35.415
3595 40.350 23.631
3596 15.800 10.964
3597 -9.485 -2.161
3598 -34.586 -15.269
3599 -58.606 -27.888
3600 -80.750 -39.593
3601 -100.381 -50.042
3602 -117.055 -58.992
3603 -130.522 -66.307
3604 -140.712 -71.951
3605 -147.707 -75.969
3606 -151.710 -78.459
3607 -153.015 -79.559
3608 -151.966 -79.421
3609 -148.930 -78.208
3610 -144.268 -76.086
3611 -138.319 -73.225
3612 -131.395 -69.795
3613 -123.782 -65.956
3614 -115.742 -61.858
3615 -107.520 -57.636
3616 -99.339 -53.414
3617 -91.397 -49.298
3618 -83.859 -45.385
3619 -76.860 -41.763
3620 -70.500 -38.501
3621 -64.840 -35.644
3622 -59.894 -33.200
3623 -55.632 -31.149
3624 -51.984 -29.447
3625 -48.842 -28.028
3626 -46.067 -26.801
3627 -43.500 -25.658
3628 -40.978 -24.483
3629 -38.345 -23.166
3630 -35.461 -21.624
3631 -32.211 -19.800
3632 -28.509 -17.662
3633 -24.303 -15.203
3634 -19.574 -12.435
3635 -14.340 -9.386
3636 -8.653 -6.097
3637 -2.595 -2.614
3638 3.740 1.005
3639 10.247 4.701
3640 16.820 8.411
3641 23.357 12.075
3642 29.775 15.647
3643 36.012 19.092
3644 42.028 22.390
3645 47.808 25.533
3646 53.355 28.527
3647 58.694 31.386
3648 63.868 34.130
3649 68.937 36.790
3650 73.971 39.410
3651 79.048 42.048
3652 84.246 44.768
3653 89.637 47.628
3654 95.278 50.663
3655 101.200 53.887
3656 107.407 57.292
3657 113.875 60.850
3658 120.547 64.511
3659 127.326 68.206
3660 134.073 71.846
3661 140.599 75.326
3662 146.672 78.526
3663 152.013 81.312
3664 156.305 83.531
3665 159.194 85.012
3666 160.304 85.569
3667 159.252 85.013
3668 155.664 83.156
3669 149.201 79.823
3670 139.596 74.869
3671 126.689 68.201
3672 110.463 59.791
3673 91.072 49.705
3674 68.872 38.120
3675 44.426 25.328
3676 18.497 11.720
3677 -8.013 -2.241
3678 -34.156 -16.071
3679 -59.030 -29.304
3680 -81.857 -41.533
3681 -102.031 -52.425
3682 -119.139 -61.737
3683 -132.969 -69.321
3684 -143.499 -75.135
3685 -150.862 -79.233
3686 -155.305 -81.745
3687 -157.150 -82.851
3688 -156.755 -82.753
3689 -154.495 -81.660
3690 -150.733 -79.769
3691 -145.803 -77.256
3692 -139.999 -74.275
3693 -133.576 -70.958
3694 -126.749 -67.423
3695 -119.701 -63.771
3696 -112.591 -60.098
3697 -105.556 -56.485
3698 -98.718 -53.002
3699 -92.180 -49.701
3700 -86.017 -46.618
3701 -80.273 -43.769
3702 -74.968 -41.155
3703 -70.095 -38.762
3704 -65.626 -36.566
3705 -61.514 -34.535
3706 -57.699 -32.634
3707 -54.104 -30.825
3708 -50.638 -29.063
3709 -47.198 -27.296
3710 -43.684 -25.467
3711 -40.002 -23.521
3712 -36.074 -21.410
3713 -31.847 -19.101
3714 -27.297 -16.575
3715 -22.431 -13.832
3716 -17.279 -10.890
3717 -11.885 -7.773
3718 -6.302 -4.514
3719 -0.589 -1.148
3720 5.194 2.286
3721 10.979 5.740
3722 16.706 9.165
3723 22.319 12.511
3724 27.780 15.735
3725 33.069 18.810
3726 38.189 21.726
3727 43.162 24.493
3728 48.031 27.144
3729 52.845 29.717
3730 57.655 32.255
3731 62.513 34.799
3732 67.479 37.393
3733 72.617 40.076
3734 77.995 42.884
3735 83.677 45.842
3736 89.716 48.970
3737 96.139 52.282
3738 102.938 55.779
3739 110.059 59.450
3740 117.407 63.261
3741 124.855 67.154
3742 132.242 71.045
3743 139.371 74.835
3744 146.001 78.404
3745 151.848 81.607
3746 156.585 84.267
3747 159.853 86.180
3748 161.278 87.134
3749 160.480 86.912
3750 157.092 85.305
3751 150.786 82.121
3752 141.300 77.208
3753 128.475 70.473
3754 112.290 61.900
3755 92.900 51.571
3756 70.672 39.674
3757 46.190 26.507
3758 20.237 12.474
3759 -6.273 -1.945
3760 -32.394 -16.240
3761 -57.241 -29.930
3762 -80.056 -42.600
3763 -100.247 -53.922
3764 -117.413 -63.664
3765 -131.345 -71.693
3766 -142.018 -77.969
3767 -149.561 -82.536
3768 -154.221 -85.505
3769 -156.325 -87.035
3770 -156.234 -87.309
3771 -154.312 -86.516
3772 -150.899 -84.836
3773 -146.299 -82.436
3774 -140.776 -79.463
3775 -134.560 -76.050
3776 -127.852 -72.319
3777 -120.826 -68.387
3778 -113.639 -64.363
3779 -106.434 -60.343
3780 -99.342 -56.409
3781 -92.478 -52.622
3782 -85.934 -49.024
3783 -79.784 -45.639
3784 -74.081 -42.476
3785 -68.860 -39.540
3786 -64.131 -36.828
3787 -59.882 -34.331
3788 -56.069 -32.031
3789 -52.621 -29.900
3790 -49.434 -27.890
3791 -46.384 -25.940
3792 -43.337 -23.981
3793 -40.166 -21.948
3794 -36.760 -19.796
3795 -33.035 -17.495
3796 -28.933 -15.037
3797 -24.432 -12.434
3798 -19.542 -9.710
3799 -14.305 -6.897
3800 -8.788 -4.034
3801 -3.069 -1.157
3802 2.771 1.709
3803 8.658 4.546
3804 14.525 7.345
3805 20.313 10.097
3806 25.976 12.801
3807 31.486 15.465
3808 36.838 18.109
3809 42.055 20.752
3810 47.179 23.417
3811 52.265 26.133
3812 57.365 28.933
3813 62.532 31.847
3814 67.811 34.898
3815 73.241 38.100
3816 78.855 41.456
3817 84.681 44.964
3818 90.741 48.621
3819 97.050 52.418
3820 103.608 56.341
3821 110.394 60.368
3822 117.351 64.460
3823 124.384 68.562
3824 131.356 72.604
3825 138.092 76.498
3826 144.381 80.137
3827 149.968 83.393
3828 154.568 86.111
3829 157.856 88.115
3830 159.481 89.208
3831 159.074 89.187
3832 156.265 87.854
3833 150.713 85.028
3834 142.131 80.553
3835 130.318 74.321
3836 115.193 66.292
3837 96.842 56.518
3838 75.558 45.163
3839 51.859 32.503
3840 26.478 18.925
3841 0.304 4.892
3842 -25.701 -9.098
3843 -50.605 -22.558
3844 -73.587 -35.054
3845 -93.999 -46.241
3846 -111.392 -55.878
3847 -125.520 -63.835
3848 -136.331 -70.077
3849 -143.938 -74.655
3850 -148.578 -77.675
3851 -150.570 -79.282
3852 -150.276 -79.646
3853 -148.073 -78.945
3854 -144.323 -77.365
3855 -139.369 -75.083
3856 -133.523 -72.264
3857 -127.062 -69.048
3858 -120.221 -65.552
3859 -113.203 -61.883
3860 -106.178 -58.140
3861 -99.293 -54.418
3862 -92.674 -50.803
3863 -86.421 -47.369
3864 -80.610 -44.174
3865 -75.293 -41.262
3866 -70.492 -38.661
3867 -66.200 -36.374
3868 -62.384 -34.375
3869 -58.984 -32.621
3870 -55.913 -31.050
3871 -53.054 -29.590
3872 -50.269 -28.162
3873 -47.408 -26.684
3874 -44.332 -25.080
3875 -40.930 -23.289
3876 -37.132 -21.269
3877 -32.907 -19.002
3878 -28.250 -16.484
3879 -23.182 -13.731
3880 -17.747 -10.771
3881 -12.006 -7.640
3882 -6.030 -4.381
3883 0.111 -1.039
3884 6.350 2.345
3885 12.623 5.730
3886 18.869 9.080
3887 25.031 12.363
3888 31.062 15.549
3889 36.924 18.617
3890 42.604 21.563
3891 48.110 24.400
3892 53.474 27.153
3893 58.749 29.863
3894 64.001 32.576
3895 69.299 35.345
3896 74.697 38.214
3897 80.239 41.219
3898 85.949 44.382
3899 91.844 47.716
3900 97.927 51.229
3901 104.193 54.916
3902 110.615 58.752
3903 117.133 62.687
3904 123.647 66.647
3905 130.012 70.525
3906 136.027 74.184
3907 141.443 77.464
3908 145.966 80.186
3909 149.273 82.170
3910 151.022 83.235
3911 150.860 83.207
3912 148.438 81.922
3913 143.429 79.230
3914 135.551 75.000
3915 124.599 69.135
3916 110.476 61.587
3917 93.244 52.386
3918 73.157 41.654
3919 50.681 29.629
3920 26.481 16.652
3921 1.387 3.161
3922 -23.691 -10.358
3923 -47.844 -23.417
3924 -70.264 -35.580
3925 -90.302 -46.492
3926 -107.497 -55.892
3927 -121.578 -63.624
3928 -132.453 -69.631
3929 -140.185 -73.948
3930 -144.958 -76.683
3931 -147.049 -77.996
3932 -146.799 -78.078
3933 -144.583 -77.140
3934 -140.782 -75.385
3935 -135.762 -72.997
3936 -129.859 -70.136
3937 -123.365 -66.939
3938 -116.528 -63.528
3939 -109.553 -60.008
3940 -102.609 -56.467
3941 -95.839 -52.978
3942 -89.357 -49.605
3943 -83.254 -46.395
3944 -77.587 -43.386
3945 -72.384 -40.595
3946 -67.642 -38.022
3947 -63.324 -35.653
3948 -59.366 -33.463
3949 -55.681 -31.414
3950 -52.175 -29.466
3951 -48.747 -27.578
3952 -45.291 -25.703
3953 -41.702 -23.790
3954 -37.886 -21.788
3955 -33.769 -19.648
3956 -29.304 -17.340
3957 -24.478 -14.849
3958 -19.305 -12.181
3959 -13.818 -9.357
3960 -8.065 -6.413
3961 -2.102 -3.388
3962 4.009 -0.313
3963 10.203 2.783
3964 16.419 5.878
3965 22.599 8.959
3966 28.696 12.018
3967 34.676 15.057
3968 40.518 18.080
3969 46.219 21.091
3970 51.789 24.098
3971 57.260 27.120
3972 62.684 30.188
3973 68.128 33.344
3974 73.671 36.634
3975 79.384 40.094
3976 85.325 43.734
3977 91.525 47.539
3978 97.990 51.476
3979 104.699 55.508
3980 111.603 59.592
3981 118.627 63.682
3982 125.662 67.722
3983 132.552 71.641
3984 139.092 75.341
3985 145.024 78.694
3986 150.034 81.548
3987 153.762 83.723
3988 155.812 85.023
3989 155.779 85.238
3990 153.276 84.165
3991 147.948 81.610
3992 139.506 77.410
3993 127.756 71.447
3994 112.639 63.667
3995 94.266 54.110
3996 72.957 42.920
3997 49.252 30.366
3998 23.899 16.839
3999 -2.203 2.827
4000 -28.091 -11.139
4001 -52.846 -24.542
4002 -75.673 -36.937
4003 -95.954 -47.979
4004 -113.270 -57.439
4005 -127.402 -65.208
4006 -138.310 -71.276
4007 -146.103 -75.708
4008 -151.000 -78.623
4009 -153.292 -80.172
4010 -153.318 -80.527
4011 -151.437 -79.870
4012 -147.997 -78.379
4013 -143.310 -76.215
4014 -137.653 -73.525
4015 -131.271 -70.436
4016 -124.385 -67.060
4017 -117.186 -63.492
4018 -109.844 -59.811
4019 -102.508 -56.090
4020 -95.315 -52.400
4021 -88.390 -48.809
4022 -81.838 -45.374
4023 -75.734 -42.134
4024 -70.125 -39.109
4025 -65.018 -36.301
4026 -60.395 -33.702
4027 -56.208 -31.294
4028 -52.386 -29.055
4029 -48.838 -26.952
4030 -45.456 -24.946
4031 -42.122 -22.993
4032 -38.720 -21.040
4033 -35.146 -19.032
4034 -31.308 -16.925
4035 -27.139 -14.685
4036 -22.602 -12.298
4037 -17.692 -9.763
4038 -12.435 -7.093
4039 -6.890 -4.310
4040 -1.134 -1.443
4041 4.747 1.480
4042 10.673 4.431
4043 16.584 7.394
4044 22.437 10.367
4045 28.209 13.357
4046 33.889 16.371
4047 39.478 19.416
4048 44.985 22.498
4049 50.433 25.621
4050 55.860 28.792
4051 61.318 32.019
4052 66.868 35.318
4053 72.576 38.711
4054 78.511 42.222
4055 84.725 45.871
4056 91.244 49.661
4057 98.062 53.577
4058 105.142 57.583
4059 112.407 61.625
4060 119.745 65.634
4061 127.008 69.535
4062 134.026 73.250
4063 140.599 76.687
4064 146.486 79.738
4065 151.414 82.276
4066 155.072 84.149
4067 157.126 85.185
4068 157.215 85.195
4069 154.977 83.983
4070 150.068 81.360
4071 142.192 77.160
4072 131.134 71.263
4073 116.805 63.615
4074 99.278 54.252
4075 78.821 43.318
4076 55.912 31.073
4077 31.228 17.885
4078 5.600 4.201
4079 -20.056 -9.491
4080 -44.833 -22.713
4081 -67.914 -35.039
4082 -88.630 -46.122
4083 -106.494 -55.707
4084 -121.209 -63.638
4085 -132.669 -69.854
4086 -140.933 -74.389
4087 -146.197 -77.350
4088 -148.753 -78.896
4089 -148.956 -79.214
4090 -147.185 -78.502
4091 -143.816 -76.957
4092 -139.202 -74.756
4093 -133.657 -72.056
4094 -127.452 -68.995
4095 -120.818 -65.692
4096 -113.948 -62.252
4097 -107.006 -58.764
4098 -100.132 -55.308
4099 -93.448 -51.952
4100 -87.057 -48.756
4101 -81.048 -45.768
4102 -75.487 -43.027
4103 -70.407 -40.558
4104 -65.811 -38.366
4105 -61.664 -36.437
4106 -57.900 -34.730
4107 -54.428 -33.186
4108 -51.142 -31.735
4109 -47.925 -30.295
4110 -44.663 -28.784
4111 -41.250 -27.129
4112 -37.603 -25.280
4113 -33.658 -23.210
4114 -29.374 -20.920
4115 -24.735 -18.420
4116 -19.747 -15.733
4117 -14.442 -12.881
4118 -8.864 -9.887
4119 -3.066 -6.771
4120 2.894 -3.546
4121 8.964 -0.217
4122 15.098 3.214
4123 21.264 6.743
4124 27.436 10.364
4125 33.589 14.066
4126 39.700 17.824
4127 45.755 21.612
4128 51.751 25.409
4129 57.696 29.204
4130 63.607 32.993
4131 69.510 36.774
4132 75.436 40.542
4133 81.423 44.296
4134 87.503 48.034
4135 93.702 51.759
4136 100.031 55.471
4137 106.474 59.171
4138 112.982 62.848
4139 119.460 66.474
4140 125.765 69.991
4141 131.705 73.309
4142 137.042 76.308
4143 141.505 78.841
4144 144.802 80.748
4145 146.617 81.862
4146 146.620 82.009
4147 144.470 81.016
4148 139.832 78.716
4149 132.418 74.959
4150 122.018 69.628
4151 108.538 62.661
4152 92.042 54.077
4153 72.786 43.994
4154 51.230 32.645
4155 28.040 20.377
4156 4.032 7.630
4157 -19.912 -5.113
4158 -42.929 -17.381
4159 -64.257 -28.761
4160 -83.286 -38.927
4161 -99.581 -47.653
4162 -112.881 -54.810
4163 -123.089 -60.358
4164 -130.252 -64.330
4165 -134.535 -66.822
4166 -136.193 -67.972
4167 -135.550 -67.950
4168 -132.966 -66.938
4169 -128.813 -65.123
4170 -123.448 -62.684
4171 -117.197 -59.781
4172 -110.344 -56.555
4173 -103.131 -53.129
4174 -95.767 -49.612
4175 -88.437 -46.106
4176 -81.308 -42.701
4177 -74.528 -39.483
4178 -68.222 -36.525
4179 -62.483 -33.884
4180 -57.362 -31.586
4181 -52.869 -29.628
4182 -48.966 -27.971
4183 -45.579 -26.550
4184 -42.605 -25.283
4185 -39.927 -24.084
4186 -37.422 -22.869
4187 -34.974 -21.576
4188 -32.477 -20.159
4189 -29.831 -18.584
4190 -26.943 -16.818
4191 -23.729 -14.834
4192 -20.127 -12.618
4193 -16.102 -10.174
4194 -11.653 -7.525
4195 -6.807 -4.703
4196 -1.610 -1.752
4197 3.873 1.285
4198 9.574 4.371
4199 15.427 7.482
4200 21.376 10.604
4201 27.376 13.735
4202 33.396 16.879
4203 39.417 20.044
4204 45.438 23.243
4205 51.480 26.489
4206 57.573 29.797
4207 63.750 33.178
4208 70.034 36.641
4209 76.448 40.190
4210 83.007 43.831
4211 89.715 47.561
4212 96.549 51.365
4213 103.449 55.207
4214 110.312 59.039
4215 116.997 62.785
4216 123.329 66.350
4217 129.091 69.610
4218 134.029 72.418
4219 137.851 74.609
4220 140.230 75.996
4221 140.817 76.384
4222 139.253 75.571
4223 135.195 73.370
4224 128.348 69.619
4225 118.497 64.208
4226 105.546 57.097
4227 89.546 48.331
4228 70.732 38.057
4229 49.540 26.530
4230 26.605 14.103
4231 2.712 1.209
4232 -21.272 -11.687
4233 -44.491 -24.129
4234 -66.176 -35.716
4235 -85.695 -46.125
4236 -102.580 -55.123
4237 -116.538 -62.572
4238 -127.448 -68.416
4239 -135.345 -72.679
4240 -140.388 -75.451
4241 -142.831 -76.870
4242 -142.984 -77.101
4243 -141.185 -76.316
4244 -137.771 -74.682
4245 -133.071 -72.353
4246 -127.394 -69.468
4247 -121.014 -66.155
4248 -114.166 -62.531
4249 -107.052 -58.710
4250 -99.849 -54.798
4251 -92.706 -50.896
4252 -85.751 -47.093
4253 -79.087 -43.459
4254 -72.785 -40.044
4255 -66.889 -36.871
4256 -61.419 -33.947
4257 -56.369 -31.265
4258 -51.719 -28.816
4259 -47.425 -26.579
4260 -43.421 -24.522
4261 -39.619 -22.595
4262 -35.922 -20.740
4263 -32.227 -18.897
4264 -28.439 -17.014
4265 -24.472 -15.047
4266 -20.275 -12.965
4267 -15.831 -10.750
4268 -11.164 -8.406
4269 -6.312 -5.945
4270 -1.317 -3.385
4271 3.784 -0.732
4272 8.953 2.008
4273 14.155 4.836
4274 19.361 7.750
4275 24.549 10.749
4276 29.704 13.822
4277 34.819 16.951
4278 39.895 20.114
4279 44.949 23.295
4280 50.016 26.493
4281 55.152 29.718
4282 60.415 32.985
4283 65.856 36.315
4284 71.523 39.726
4285 77.449 43.228
4286 83.657 46.822
4287 90.151 50.501
4288 96.906 54.258
4289 103.871 58.083
4290 110.964 61.956
4291 118.076 65.835
4292 125.067 69.658
4293 131.765 73.336
4294 137.972 76.760
4295 143.455 79.799
4296 147.943 82.301
4297 151.122 84.088
4298 152.649 84.958
4299 152.163 84.705
4300 149.314 83.131
4301 143.786 80.063
4302 135.320 75.374
4303 123.755 68.990
4304 109.068 60.923
4305 91.413 51.275
4306 71.141 40.254
4307 48.812 28.167
4308 25.154 15.409
4309 1.006 2.421
4310 -22.775 -10.350
4311 -45.399 -22.503
4312 -66.206 -33.702
4313 -84.695 -43.691
4314 -100.538 -52.297
4315 -113.571 -59.431
4316 -123.781 -65.079
4317 -131.273 -69.289
4318 -136.247 -72.159
4319 -138.969 -73.821
4320 -139.742 -74.427
4321 -138.876 -74.140
4322 -136.665 -73.119
4323 -133.373 -71.512
4324 -129.222 -69.450
4325 -124.390 -67.038
4326 -119.023 -64.356
4327 -113.249 -61.473
4328 -107.194 -58.452
4329 -101.000 -55.364
4330 -94.813 -52.287
4331 -88.776 -49.299
4332 -83.008 -46.463
4333 -77.600 -43.820
4334 -72.606 -41.389
4335 -68.040 -39.167
4336 -63.882 -37.140
4337 -60.085 -35.284
4338 -56.588 -33.577
4339 -53.315 -31.989
4340 -50.179 -30.489
4341 -47.089 -29.035
4342 -43.951 -27.577
4343 -40.675 -26.056
4344 -37.177 -24.413
4345 -33.389 -22.593
4346 -29.261 -20.556
4347 -24.778 -18.277
4348 -19.960 -15.758
4349 -14.860 -13.018
4350 -9.551 -10.094
4351 -4.110 -7.029
4352 1.388 -3.867
4353 6.882 -0.646
4354 12.336 2.609
4355 17.733 5.882
4356 23.072 9.167
4357 28.357 12.463
4358 33.596 15.765
4359 38.802 19.065
4360 43.995 22.361
4361 49.208 25.659
4362 54.487 28.973
4363 59.883 32.318
4364 65.443 35.713
4365 71.205 39.175
4366 77.195 42.715
4367 83.423 46.340
4368 89.878 50.044
4369 96.534 53.816
4370 103.346 57.637
4371 110.247 61.476
4372 117.138 65.288
4373 123.877 69.000
4374 130.275 72.513
4375 136.094 75.697
4376 141.050 78.403
4377 144.822 80.465
4378 147.063 81.711
4379 147.418 81.958
4380 145.537 81.026
4381 141.091 78.747
4382 133.802 74.976
4383 123.474 69.605
4384 110.041 62.584
4385 93.599 53.947
4386 74.435 43.839
4387 53.043 32.518
4388 30.103 20.348
4389 6.423 7.762
4390 -17.141 -4.779
4391 -39.775 -16.841
4392 -60.773 -28.051
4393 -79.579 -38.116
4394 -95.811 -46.836
4395 -109.250 -54.094
4396 -119.832 -59.853
4397 -127.617 -64.145
4398 -132.771 -67.057
4399 -135.536 -68.726
4400 -136.202 -69.316
4401 -135.081 -69.007
4402 -132.482 -67.974
4403 -128.698 -66.380
4404 -123.992 -64.358
4405 -118.592 -62.017
4406 -112.689 -59.440
4407 -106.450 -56.691
4408 -100.027 -53.828
4409 -93.567 -50.913
4410 -87.216 -48.013
4411 -81.111 -45.195
4412 -75.365 -42.521
4413 -70.063 -40.039
4414 -65.247 -37.772
4415 -60.916 -35.722
4416 -57.026 -33.866
4417 -53.507 -32.175
4418 -50.272 -30.611
4419 -47.234 -29.136
4420 -44.309 -27.710
4421 -41.415 -26.287
4422 -38.470 -24.815
4423 -35.394 -23.237
4424 -32.106 -21.495
4425 -28.538 -19.536
4426 -24.641 -17.330
4427 -20.397 -14.869
4428 -15.818 -12.174
4429 -10.953 -9.292
4430 -5.869 -6.284
4431 -0.637 -3.211
4432 4.680 -0.126
4433 10.030 2.935
4434 15.365 5.946
4435 20.643 8.888
4436 25.827 11.747
4437 30.892 14.513
4438 35.819 17.184
4439 40.601 19.763
4440 45.246 22.267
4441 49.788 24.723
4442 54.278 27.168
4443 58.786 29.651
4444 63.387 32.223
4445 68.166 34.934
4446 73.199 37.825
4447 78.552 40.922
4448 84.263 44.230
4449 90.341 47.745
4450 96.767 51.438
4451 103.485 55.271
4452 110.402 59.191
4453 117.378 63.128
4454 124.221 66.984
4455 130.681 70.631
4456 136.460 73.908
4457 141.211 76.628
4458 144.558 78.587
4459 146.108 79.577
4460 145.471 79.389
4461 142.281 77.829
4462 136.221 74.722
4463 127.058 69.934
4464 114.681 63.391
4465 99.139 55.107
4466 80.680 45.204
4467 59.760 33.923
4468 37.027 21.622
4469 13.274 8.749
4470 -10.642 -4.204
4471 -33.877 -16.758
4472 -55.672 -28.486
4473 -75.398 -39.040
4474 -92.585 -48.170
4475 -106.927 -55.728
4476 -118.280 -61.658
4477 -126.646 -65.982
4478 -132.157 -68.790
4479 -135.044 -70.225
4480 -135.608 -70.458
4481 -134.189 -69.671
4482 -131.128 -68.043
4483 -126.755 -65.744
4484 -121.367 -62.920
4485 -115.221 -59.698
4486 -108.537 -56.189
4487 -101.506 -52.503
4488 -94.314 -48.744
4489 -87.149 -45.020
4490 -80.199 -41.437
4491 -73.639 -38.096
4492 -67.617 -35.083
4493 -62.240 -32.452
4494 -57.559 -30.226
4495 -53.570 -28.394
4496 -50.210 -26.911
4497 -47.373 -25.701
4498 -44.924 -24.667
4499 -42.724 -23.706
4500 -40.636 -22.724
4501 -38.524 -21.642
4502 -36.258 -20.394
4503 -33.713 -18.925
4504 -30.787 -17.193
4505 -27.404 -15.172
4506 -23.517 -12.852
4507 -19.113 -10.245
4508 -14.219 -7.380
4509 -8.899 -4.307
4510 -3.246 -1.090
4511 2.636 2.203
4512 8.641 5.511
4513 14.668 8.787
4514 20.638 12.005
4515 26.498 15.150
4516 32.225 18.220
4517 37.825 21.220
4518 43.321 24.161
4519 48.746 27.063
4520 54.141 29.947
4521 59.549 32.841
4522 65.014 35.774
4523 70.585 38.783
4524 76.313 41.902
4525 82.238 45.161
4526 88.380 48.573
4527 94.733 52.136
4528 101.266 55.830
4529 107.913 59.619
4530 114.576 63.442
4531 121.120 67.214
4532 127.383 70.824
4533 133.155 74.144
4534 138.179 77.025
4535 142.148 79.298
4536 144.713 80.770
4537 145.503 81.244
4538 144.149 80.524
4539 140.293 78.424
4540 133.619 74.775
4541 123.886 69.444
4542 110.971 62.362
4543 94.908 53.555
4544 75.912 43.149
4545 54.412 31.387
4546 31.041 18.615
4547 6.597 5.261
4548 -18.039 -8.204
4549 -41.994 -21.312
4550 -64.487 -33.639
4551 -84.878 -44.834
4552 -102.694 -54.641
4553 -117.638 -62.905
4554 -129.583 -69.569
4555 -138.549 -74.660
4556 -144.677 -78.268
4557 -148.201 -80.517
4558 -149.415 -81.552
4559 -148.646 -81.530
4560 -146.222 -80.616
4561 -142.460 -78.964
4562 -137.648 -76.719
4563 -132.031 -74.008
4564 -125.810 -70.948
4565 -119.153 -67.640
4566 -112.198 -64.165
4567 -105.073 -60.592
4568 -97.896 -56.979
4569 -90.790 -53.386
4570 -83.875 -49.873
4571 -77.270 -46.491
4572 -71.071 -43.277
4573 -65.349 -40.257
4574 -60.141 -37.442
4575 -55.451 -34.832
4576 -51.236 -32.410
4577 -47.416 -30.147
4578 -43.882 -28.006
4579 -40.513 -25.943
4580 -37.191 -23.912
4581 -33.809 -21.871
4582 -30.278 -19.779
4583 -26.528 -17.597
4584 -22.510 -15.289
4585 -18.194 -12.832
4586 -13.570 -10.205
4587 -8.644 -7.394
4588 -3.447 -4.400
4589 1.969 -1.242
4590 7.530 2.036
4591 13.152 5.377
4592 18.764 8.720
4593 24.319 12.016
4594 29.789 15.227
4595 35.170 18.335
4596 40.468 21.330
4597 45.703 24.213
4598 50.903 26.996
4599 56.100 29.703
4600 61.329 32.372
4601 66.631 35.046
4602 72.048 37.767
4603 77.623 40.575
4604 83.396 43.510
4605 89.403 46.609
4606 95.666 49.903
4607 102.187 53.404
4608 108.940 57.100
4609 115.868 60.955
4610 122.875 64.905
4611 129.830 68.856
4612 136.555 72.695
4613 142.831 76.289
4614 148.396 79.494
4615 152.947 82.149
4616 156.140 84.074
4617 157.601 85.075
4618 156.935 84.945
4619 153.747 83.470
4620 147.676 80.449
4621 138.430 75.714
4622 125.830 69.156
4623 109.860 60.759
4624 90.699 50.614
4625 68.744 38.927
4626 44.604 26.021
4627 19.074 12.316
4628 -6.940 -1.701
4629 -32.509 -15.528
4630 -56.767 -28.692
4631 -78.990 -40.790
4632 -98.632 -51.509
4633 -115.338 -60.643
4634 -128.943 -68.090
4635 -139.438 -73.840
4636 -146.943 -77.958
4637 -151.660 -80.561
4638 -153.854 -81.802
4639 -153.833 -81.861
4640 -151.933 -80.932
4641 -148.488 -79.205
4642 -143.816 -76.853
4643 -138.200 -74.030
4644 -131.897 -70.865
4645 -125.127 -67.474
4646 -118.073 -63.951
4647 -110.886 -60.374
4648 -103.696 -56.802
4649 -96.620 -53.287
4650 -89.775 -49.878
4651 -83.274 -46.621
4652 -77.213 -43.557
4653 -71.661 -40.720
4654 -66.658 -38.131
4655 -62.201 -35.793
4656 -58.246 -33.687
4657 -54.705 -31.771
4658 -51.461 -29.987
4659 -48.382 -28.268
4660 -45.335 -26.549
4661 -42.200 -24.777
4662 -38.874 -22.910
4663 -35.282 -20.921
4664 -31.375 -18.788
4665 -27.128 -16.493
4666 -22.533 -14.022
4667 -17.604 -11.371
4668 -12.370 -8.544
4669 -6.883 -5.558
4670 -1.210 -2.440
4671 4.576 0.771
4672 10.400 4.030
4673 16.200 7.297
4674 21.935 10.541
4675 27.584 13.749
4676 33.146 16.916
4677 38.635 20.055
4678 44.071 23.195
4679 49.484 26.367
4680 54.906 29.598
4681 60.362 32.898
4682 65.880 36.271
4683 71.488 39.721
4684 77.218 43.251
4685 83.101 46.858
4686 89.159 50.531
4687 95.405 54.244
4688 101.833 57.967
4689 108.409 61.664
4690 115.070 65.295
4691 121.728 68.812
4692 128.264 72.159
4693 134.529 75.267
4694 140.328 78.050
4695 145.416 80.401
4696 149.501 82.186
4697 152.250 83.248
4698 153.299 83.408
4699 152.265 82.475
4700 148.773 80.259
4701 142.485 76.592
4702 133.137 71.349
4703 120.580 64.464
4704 104.822 55.951
4705 86.060 45.915
4706 64.703 34.566
4707 41.367 22.225
4708 16.842 9.302
4709 -7.979 -3.742
4710 -32.200 -16.439
4711 -55.004 -28.368
4712 -75.708 -39.185
4713 -93.801 -48.632
4714 -108.951 -56.541
4715 -120.997 -62.832
4716 -129.937 -67.507
4717 -135.900 -70.641
4718 -139.117 -72.362
4719 -139.887 -72.833
4720 -138.544 -72.231
4721 -135.434 -70.742
4722 -130.898 -68.550
4723 -125.260 -65.827
4724 -118.816 -62.721
4725 -111.828 -59.358
4726 -104.526 -55.842
4727 -97.102 -52.256
4728 -89.713 -48.665
4729 -82.489 -45.115
4730 -75.535 -41.641
4731 -68.936 -38.273
4732 -62.753 -35.036
4733 -57.019 -31.948
4734 -51.746 -29.016
4735 -46.920 -26.236
4736 -42.508 -23.595
4737 -38.459 -21.069
4738 -34.702 -18.624
4739 -31.154 -16.210
4740 -27.730 -13.778
4741 -24.345 -11.275
4742 -20.926 -8.661
4743 -17.403 -5.905
4744 -13.711 -2.990
4745 -9.796 0.088
4746 -5.624 3.316
4747 -1.182 6.666
4748 3.520 10.095
4749 8.441 13.546
4750 13.520 16.956
4751 18.674 20.258
4752 23.820 23.393
4753 28.884 26.310
4754 33.807 28.975
4755 38.560 31.371
4756 43.146 33.502
4757 47.603 35.394
4758 52.000 37.102
4759 56.424 38.698
4760 60.960 40.260
4761 65.681 41.861
4762 70.639 43.559
4763 75.863 45.391
4764 81.361 47.375
4765 87.124 49.509
4766 93.117 51.779
4767 99.283 54.161
4768 105.528 56.623
4769 111.725 59.118
4770 117.697 61.573
4771 123.222 63.886
4772 128.031 65.932
4773 131.824 67.562
4774 134.278 68.607
4775 135.050 68.878
4776 133.793 68.181
4777 130.170 66.331
4778 123.881 63.163
4779 114.685 58.550
4780 102.449 52.424
4781 87.193 44.798
4782 69.137 35.789
4783 48.727 25.635
4784 26.616 14.682
4785 3.608 3.348
4786 -19.428 -7.920
4787 -41.653 -18.699
4788 -62.325 -28.629
4789 -80.847 -37.434
4790 -96.788 -44.934
4791 -109.897 -51.038
4792 -120.084 -55.739
4793 -127.397 -59.096
4794 -131.995 -61.222
4795 -134.125 -62.262
4796 -134.092 -62.381
4797 -132.233 -61.747
4798 -128.880 -60.517
4799 -124.348 -58.832
4800 -118.915 -56.807
4801 -112.824 -54.539
4802 -106.285 -52.112
4803 -99.477 -49.603
4804 -92.563 -47.078
4805 -85.694 -44.598
4806 -79.015 -42.214
4807 -72.663 -39.978
4808 -66.757 -37.942
4809 -61.388 -36.153
4810 -56.618 -34.650
4811 -52.469 -33.454
4812 -48.933 -32.570
4813 -45.966 -31.979
4814 -43.496 -31.640
4815 -41.427 -31.491
4816 -39.641 -31.462
4817 -38.008 -31.479
4818 -36.402 -31.472
4819 -34.703 -31.374
4820 -32.801 -31.120
4821 -30.602 -30.653
4822 -28.035 -29.933
4823 -25.060 -28.937
4824 -21.666 -27.659
4825 -17.874 -26.107
4826 -13.716 -24.298
4827 -9.230 -22.245
4828 -4.451 -19.952
4829 0.591 -17.418
4830 5.865 -14.642
4831 11.337 -11.622
4832 16.975 -8.364
4833 22.752 -4.878
4834 28.652 -1.178
4835 34.680 2.724
4836 40.861 6.817
4837 47.234 11.091
4838 53.836 15.539
4839 60.704 20.149
4840 67.857 24.905
4841 75.293 29.775
4842 82.977 34.714
4843 90.835 39.666
4844 98.753 44.564
4845 106.575 49.330
4846 114.109 53.875
4847 121.136 58.103
4848 127.418 61.909
4849 132.699 65.178
4850 136.703 67.786
4851 139.132 69.600
4852 139.672 70.477
4853 138.003 70.260
4854 133.813 68.793
4855 126.836 65.929
4856 116.880 61.559
4857 103.883 55.636
4858 87.947 48.203
4859 69.369 39.400
4860 48.647 29.467
4861 26.440 18.726
4862 3.517 7.550
4863 -19.321 -3.671
4864 -41.302 -14.563
4865 -61.739 -24.789
4866 -80.079 -34.071
4867 -95.925 -42.207
4868 -109.051 -49.077
4869 -119.387 -54.634
4870 -126.990 -58.905
4871 -132.019 -61.975
4872 -134.712 -63.972
4873 -135.361 -65.051
4874 -134.280 -65.366
4875 -131.774 -65.062
4876 -128.123 -64.257
4877 -123.572 -63.050
4878 -118.329 -61.514
4879 -112.570 -59.709
4880 -106.448 -57.682
4881 -100.093 -55.480
4882 -93.619 -53.143
4883 -87.129 -50.707
4884 -80.713 -48.203
4885 -74.458 -45.664
4886 -68.441 -43.119
4887 -62.722 -40.593
4888 -57.345 -38.100
4889 -52.329 -35.646
4890 -47.674 -33.229
4891 -43.362 -30.835
4892 -39.354 -28.441
4893 -35.592 -26.009
4894 -31.996 -23.499
4895 -28.474 -20.870
4896 -24.932 -18.087
4897 -21.285 -15.129
4898 -17.462 -11.990
4899 -13.410 -8.673
4900 -9.096 -5.192
4901 -4.507 -1.564
4902 0.356 2.194
4903 5.484 6.072
4904 10.858 10.071
4905 16.452 14.198
4906 22.236 18.456
4907 28.175 22.840
4908 34.233 27.332
4909 40.377 31.900
4910 46.580 36.500
4911 52.817 41.081
4912 59.071 45.592
4913 65.333 49.989
4914 71.613 54.246
4915 77.936 58.357
4916 84.332 62.323
4917 90.832 66.149
4918 97.450 69.835
4919 104.185 73.379
4920 111.017 76.786
4921 117.898 80.059
4922 124.747 83.187
4923 131.444 86.141
4924 137.829 88.867
4925 143.704 91.288
4926 148.833 93.294
4927 152.948 94.748
4928 155.750 95.493
4929 156.915 95.355
4930 156.108 94.156
4931 152.990 91.711
4932 147.243 87.851
4933 138.598 82.432
4934 126.878 75.362
4935 112.036 66.619
4936 94.192 56.271
4937 73.664 44.499
4938 50.974 31.599
4939 26.834 17.967
4940 2.078 4.062
4941 -22.423 -9.642
4942 -45.852 -22.708
4943 -67.506 -34.769
4944 -86.840 -45.537
4945 -103.477 -54.815
4946 -117.201 -62.492
4947 -127.940 -68.535
4948 -135.748 -72.980
4949 -140.774 -75.921
4950 -143.248 -77.495
4951 -143.460 -77.873
4952 -141.737 -77.246
4953 -138.422 -75.808
4954 -133.839 -73.740
4955 -128.282 -71.203
4956 -122.002 -68.331
4957 -115.220 -65.235
4958 -108.127 -62.005
4959 -100.891 -58.715
4960 -93.670 -55.425
4961 -86.622 -52.190
4962 -79.893 -49.060
4963 -73.607 -46.084
4964 -67.854 -43.297
4965 -62.685 -40.716
4966 -58.115 -38.338
4967 -54.118 -36.142
4968 -50.628 -34.095
4969 -47.552 -32.154
4970 -44.769 -30.276
4971 -42.152 -28.413
4972 -39.574 -26.522
4973 -36.922 -24.567
4974 -34.091 -22.521
4975 -30.995 -20.363
4976 -27.571 -18.079
4977 -23.782 -15.661
4978 -19.618 -13.117
4979 -15.084 -10.468
4980 -10.210 -7.740
4981 -5.045 -4.956
4982 0.348 -2.128
4983 5.902 0.738
4984 11.559 3.643
4985 17.277 6.591
4986 23.034 9.588
4987 28.824 12.639
4988 34.653 15.751
4989 40.538 18.928
4990 46.498 22.180
4991 52.557 25.517
4992 58.736 28.947
4993 65.057 32.481
4994 71.544 36.127
4995 78.221 39.890
4996 85.095 43.772
4997 92.148 47.765
4998 99.326 51.838
4999 106.538 55.934
5000 113.652 59.960
5001 120.486 63.797
5002 126.808 67.306
5003 132.342 70.328
5004 136.773 72.697
5005 139.760 74.237
5006 140.946 74.774
5007 139.975 74.139
5008 136.513 72.173
5009 130.272 68.744
5010 121.046 63.761
5011 108.744 57.191
5012 93.423 49.074
5013 75.319 39.535
5014 54.863 28.797
5015 32.680 17.173
5016 9.539 5.039
5017 -13.721 -7.198
5018 -36.271 -19.130
5019 -57.355 -30.386
5020 -76.348 -40.650
5021 -92.786 -49.680
5022 -106.386 -57.322
5023 -117.032 -63.503
5024 -124.755 -68.223
5025 -129.707 -71.547
5026 -132.131 -73.583
5027 -132.328 -74.465
5028 -130.618 -74.327
5029 -127.325 -73.304
5030 -122.757 -71.520
5031 -117.194 -69.096
5032 -110.891 -66.149
5033 -104.074 -62.788
5034 -96.939 -59.119
5035 -89.654 -55.241
5036 -82.367 -51.246
5037 -75.212 -47.212
5038 -68.308 -43.209
5039 -61.755 -39.296
5040 -55.630 -35.522
5041 -49.985 -31.926
5042 -44.850 -28.533
5043 -40.236 -25.358
5044 -36.128 -22.415
5045 -32.482 -19.701
5046 -29.220 -17.201
5047 -26.233 -14.882
5048 -23.385 -12.695
5049 -20.527 -10.585
5050 -17.519 -8.491
5051 -14.247 -6.356
5052 -10.641 -4.141
5053 -6.670 -1.824
5054 -2.338 0.601
5055 2.324 3.127
5056 7.268 5.741
5057 12.434 8.425
5058 17.762 11.160
5059 23.191 13.926
5060 28.669 16.695
5061 34.155 19.438
5062 39.622 22.130
5063 45.060 24.755
5064 50.481 27.316
5065 55.921 29.829
5066 61.426 32.326
5067 67.039 34.855
5068 72.798 37.464
5069 78.729 40.204
5070 84.846 43.110
5071 91.139 46.206
5072 97.562 49.488
5073 104.026 52.928
5074 110.391 56.463
5075 116.475 59.997
5076 122.044 63.403
5077 126.825 66.530
5078 130.508 69.203
5079 132.755 71.224
5080 133.207 72.377
5081 131.493 72.436
5082 127.253 71.184
5083 120.175 68.419
5084 110.043 63.986
5085 96.790 57.801
5086 80.531 49.886
5087 61.597 40.389
5088 40.530 29.585
5089 18.051 17.850
5090 -5.013 5.619
5091 -27.811 -6.652
5092 -49.551 -18.529
5093 -69.549 -29.636
5094 -87.272 -39.673
5095 -102.353 -48.420
5096 -114.592 -55.743
5097 -123.945 -61.586
5098 -130.498 -65.963
5099 -134.439 -68.942
5100 -136.021 -70.631
5101 -135.533 -71.163
5102 -133.289 -70.684
5103 -129.605 -69.338
5104 -124.788 -67.265
5105 -119.110 -64.596
5106 -112.811 -61.455
5107 -106.099 -57.962
5108 -99.149 -54.235
5109 -92.106 -50.378
5110 -85.093 -46.479
5111 -78.214 -42.609
5112 -71.565 -38.834
5113 -65.231 -35.210
5114 -59.281 -31.785
5115 -53.759 -28.589
5116 -48.690 -25.636
5117 -44.071 -22.926
5118 -39.870 -20.446
5119 -36.025 -18.163
5120 -32.446 -16.026
5121 -29.028 -13.977
5122 -25.656 -11.960
5123 -22.225 -9.925
5124 -18.640 -7.829
5125 -14.827 -5.650
5126 -10.732 -3.373
5127 -6.329 -0.991
5128 -1.611 1.499
5129 3.403 4.091
5130 8.678 6.773
5131 14.156 9.524
5132 19.766 12.324
5133 25.424 15.149
5134 31.049 17.972
5135 36.574 20.768
5136 41.952 23.520
5137 47.162 26.232
5138 52.215 28.918
5139 57.152 31.604
5140 62.033 34.317
5141 66.933 37.084
5142 71.922 39.924
5143 77.063 42.850
5144 82.400 45.874
5145 87.968 49.005
5146 93.788 52.250
5147 99.857 55.606
5148 106.143 59.061
5149 112.574 62.591
5150 119.037 66.146
5151 125.378 69.651
5152 131.389 72.997
5153 136.806 76.051
5154 141.315 78.648
5155 144.566 80.607
5156 146.190 81.731
5157 145.811 81.811
5158 143.063 80.641
5159 137.612 78.029
5160 129.183 73.820
5161 117.594 67.907
5162 102.788 60.255
5163 84.885 50.920
5164 64.217 40.079
5165 41.343 28.029
5166 17.019 15.158
5167 -7.872 1.914
5168 -32.419 -11.239
5169 -55.772 -23.857
5170 -77.208 -35.548
5171 -96.173 -45.998
5172 -112.297 -54.988
5173 -125.394 -62.398
5174 -135.437 -68.195
5175 -142.529 -72.424
5176 -146.873 -75.184
5177 -148.738 -76.615
5178 -148.442 -76.883
5179 -146.329 -76.170
5180 -142.748 -74.671
5181 -138.029 -72.575
5182 -132.470 -70.063
5183 -126.323 -67.298
5184 -119.795 -64.424
5185 -113.058 -61.558
5186 -106.250 -58.792
5187 -99.483 -56.194
5188 -92.862 -53.804
5189 -86.484 -51.647
5190 -80.431 -49.726
5191 -74.773 -48.030
5192 -69.570 -46.537
5193 -64.864 -45.215
5194 -60.676 -44.026
5195 -56.993 -42.926
5196 -53.767 -41.862
5197 -50.919 -40.775
5198 -48.340 -39.597
5199 -45.897 -38.254
5200 -43.440 -36.665
5201 -40.812 -34.752
5202 -37.871 -32.458
5203 -34.507 -29.755
5204 -30.650 -26.640
5205 -26.258 -23.136
5206 -21.315 -19.284
5207 -15.831 -15.132
5208 -9.839 -10.736
5209 -3.393 -6.149
5210 3.444 -1.421
5211 10.603 3.401
5212 18.004 8.268
5213 25.557 13.131
5214 33.168 17.945
5215 40.751 22.669
5216 48.240 27.268
5217 55.588 31.712
5218 62.766 35.979
5219 69.768 40.060
5220 76.599 43.961
5221 83.274 47.697
5222 89.805 51.285
5223 96.197 54.736
5224 102.437 58.044
5225 108.499 61.186
5226 114.343 64.121
5227 119.919 66.790
5228 125.163 69.128
5229 129.996 71.070
5230 134.312 72.559
5231 137.985 73.540
5232 140.853 73.947
5233 142.717 73.701
5234 143.341 72.709
5235 142.455 70.861
5236 139.771 68.040
5237 134.995 64.131
5238 127.851 59.040
5239 118.104 52.699
5240 105.601 45.088
5241 90.312 36.244
5242 72.365 26.280
5243 52.078 15.393
5244 29.975 3.870
5245 6.763 -7.929
5246 -16.732 -19.597
5247 -39.646 -30.718
5248 -61.174 -40.908
5249 -80.634 -49.852
5250 -97.511 -57.322
5251 -111.474 -63.189
5252 -122.374 -67.423
5253 -130.223 -70.075
5254 -135.168 -71.266
5255 -137.467 -71.163
5256 -137.447 -69.964
5257 -135.471 -67.876
5258 -131.906 -65.103
5259 -127.099 -61.829
5260 -121.363 -58.214
5261 -114.967 -54.390
5262 -108.128 -50.459
5263 -101.017 -46.501
5264 -93.771 -42.570
5265 -86.502 -38.703
5266 -79.305 -34.926
5267 -72.269 -31.261
5268 -65.480 -27.735
5269 -59.023 -24.377
5270 -52.966 -21.218
5271 -47.358 -18.285
5272 -42.221 -15.601
5273 -37.555 -13.185
5274 -33.335 -11.049
5275 -29.511 -9.194
5276 -26.012 -7.601
5277 -22.744 -6.234
5278 -19.610 -5.047
5279 -16.511 -3.986
5280 -13.366 -2.995
5281 -10.113 -2.028
5282 -6.710 -1.040
5283 -3.136 0.003
5284 0.621 1.132
5285 4.557 2.370
5286 8.663 3.739
5287 12.923 5.251
5288 17.318 6.912
5289 21.830 8.724
5290 26.442 10.689
5291 31.144 12.803
5292 35.943 15.071
5293 40.867 17.505
5294 45.960 20.127
5295 51.273 22.958
5296 56.858 26.014
5297 62.760 29.304
5298 69.006 32.826
5299 75.603 36.570
5300 82.534 40.515
5301 89.750 44.630
5302 97.169 48.867
5303 104.665 53.157
5304 112.063 57.410
5305 119.144 61.515
5306 125.651 65.338
5307 131.288 68.726
5308 135.722 71.498
5309 138.587 73.457
5310 139.501 74.394
5311 138.093 74.107
5312 134.032 72.413
5313 127.044 69.155
5314 116.945 64.219
5315 103.669 57.550
5316 87.308 49.184
5317 68.141 39.256
5318 46.660 28.021
5319 23.549 15.839
5320 -0.363 3.151
5321 -24.192 -9.570
5322 -47.081 -21.862
5323 -68.270 -33.312
5324 -87.139 -43.585
5325 -103.249 -52.437
5326 -116.343 -59.725
5327 -126.340 -65.392
5328 -133.306 -69.463
5329 -137.424 -72.019
5330 -138.952 -73.185
5331 -138.191 -73.109
5332 -135.462 -71.950
5333 -131.096 -69.874
5334 -125.425 -67.046
5335 -118.761 -63.633
5336 -111.389 -59.795
5337 -103.558 -55.681
5338 -95.482 -51.425
5339 -87.343 -47.137
5340 -79.296 -42.914
5341 -71.471 -38.832
5342 -63.983 -34.946
5343 -56.930 -31.294
5344 -50.395 -27.900
5345 -44.440 -24.782
5346 -39.090 -21.942
5347 -34.329 -19.359
5348 -30.097 -16.991
5349 -26.301 -14.784
5350 -22.824 -12.668
5351 -19.534 -10.577
5352 -16.305 -8.457
5353 -13.020 -6.270
5354 -9.588 -3.999
5355 -5.943 -1.642
5356 -2.037 0.797
5357 2.160 3.318
5358 6.664 5.926
5359 11.480 8.630
5360 16.608 11.435
5361 22.046 14.343
5362 27.783 17.351
5363 33.798 20.457
5364 40.065 23.662
5365 46.554 26.964
5366 53.235 30.359
5367 60.085 33.844
5368 67.093 37.421
5369 74.253 41.093
5370 81.547 44.856
5371 88.936 48.690
5372 96.351 52.555
5373 103.692 56.385
5374 110.824 60.098
5375 117.573 63.596
5376 123.719 66.761
5377 128.998 69.459
5378 133.107 71.540
5379 135.712 72.839
5380 136.461 73.188
5381 134.999 72.413
5382 130.994 70.347
5383 124.171 66.843
5384 114.338 61.790
5385 101.420 55.140
5386 85.497 46.927
5387 66.836 37.283
5388 45.910 26.449
5389 23.392 14.763
5390 0.095 2.641
5391 -23.113 -9.471
5392 -45.397 -21.132
5393 -66.026 -31.950
5394 -84.424 -41.605
5395 -100.188 -49.868
5396 -113.085 -56.612
5397 -123.041 -61.804
5398 -130.108 -65.495
5399 -134.449 -67.796
5400 -136.305 -68.861
5401 -135.974 -68.861
5402 -133.774 -67.969
5403 -130.025 -66.346
5404 -125.032 -64.145
5405 -119.082 -61.503
5406 -112.433 -58.540
5407 -105.317 -55.353
5408 -97.938 -52.022
5409 -90.474 -48.616
5410 -83.086 -45.197
5411 -75.912 -41.817
5412 -69.066 -38.520
5413 -62.635 -35.347
5414 -56.676 -32.330
5415 -51.222 -29.491
5416 -46.269 -26.843
5417 -41.786 -24.385
5418 -37.715 -22.104
5419 -33.978 -19.976
5420 -30.475 -17.971
5421 -27.088 -16.049
5422 -23.695 -14.159
5423 -20.184 -12.240
5424 -16.467 -10.238
5425 -12.483 -8.104
5426 -8.196 -5.802
5427 -3.588 -3.311
5428 1.345 -0.631
5429 6.602 2.231
5430 12.172 5.262
5431 18.043 8.450
5432 24.203 11.781
5433 30.638 15.239
5434 37.331 18.805
5435 44.262 22.465
5436 51.404 26.208
5437 58.731 30.026
5438 66.218 33.914
5439 73.838 37.868
5440 81.558 41.886
5441 89.338 45.960
5442 97.122 50.073
5443 104.824 54.191
5444 112.325 58.255
5445 119.463 62.175
5446 126.030 65.831
5447 131.771 69.073
5448 136.394 71.727
5449 139.578 73.603
5450 140.982 74.506
5451 140.262 74.246
5452 137.090 72.650
5453 131.173 69.571
5454 122.286 64.900
5455 110.302 58.586
5456 95.240 50.651
5457 77.315 41.212
5458 56.961 30.498
5459 34.831 18.843
5460 11.738 6.668
5461 -11.421 -5.565
5462 -33.767 -17.392
5463 -54.519 -28.395
5464 -73.050 -38.241
5465 -88.910 -46.694
5466 -101.833 -53.622
5467 -111.725 -58.975
5468 -118.636 -62.779
5469 -122.732 -65.117
5470 -124.266 -66.110
5471 -123.548 -65.902
5472 -120.922 -64.655
5473 -116.734 -62.541
5474 -111.323 -59.736
5475 -105.011 -56.412
5476 -98.087 -52.728
5477 -90.802 -48.831
5478 -83.364 -44.847
5479 -75.948 -40.888
5480 -68.701 -37.048
5481 -61.744 -33.403
5482 -55.172 -30.013
5483 -49.062 -26.921
5484 -43.469 -24.150
5485 -38.425 -21.701
5486 -33.930 -19.555
5487 -29.948 -17.673
5488 -26.416 -16.006
5489 -23.245 -14.500
5490 -20.332 -13.100
5491 -17.559 -11.753
5492 -14.807 -10.410
5493 -11.966 -9.035
5494 -8.940 -7.591
5495 -5.660 -6.048
5496 -2.083 -4.379
5497 1.813 -2.559
5498 6.043 -0.560
5499 10.624 1.649
5500 15.576 4.101
5501 20.908 6.819
5502 26.619 9.816
5503 32.695 13.090
5504 39.117 16.625
5505 45.856 20.394
5506 52.880 24.355
5507 60.145 28.468
5508 67.599 32.692
5509 75.172 36.979
5510 82.766 41.270
5511 90.247 45.486
5512 97.448 49.531
5513 104.168 53.292
5514 110.166 56.641
5515 115.169 59.436
5516 118.874 61.520
5517 120.961 62.724
5518 121.098 62.879
5519 118.961 61.819
5520 114.254 59.394
5521 106.744 55.486
5522 96.297 50.024
5523 82.909 43.001
5524 66.736 34.499
5525 48.121 24.702
5526 27.600 13.896
5527 5.879 2.456
5528 -16.225 -9.187
5529 -37.868 -20.590
5530 -58.259 -31.336
5531 -76.719 -41.067
5532 -92.714 -49.498
5533 -105.879 -56.431
5534 -116.021 -61.761
5535 -123.114 -65.476
5536 -127.273 -67.646
5537 -128.722 -68.400
5538 -127.758 -67.912
5539 -124.726 -66.376
5540 -119.986 -63.991
5541 -113.893 -60.943
5542 -106.780 -57.399
5543 -98.948 -53.503
5544 -90.670 -49.389
5545 -82.201 -45.175
5546 -73.777 -40.969
5547 -65.607 -36.855
5548 -57.863 -32.901
5549 -50.679 -29.159
5550 -44.141 -25.669
5551 -38.292 -22.455
5552 -33.134 -19.525
5553 -28.636 -16.878
5554 -24.738 -14.503
5555 -21.360 -12.381
5556 -18.410 -10.489
5557 -15.780 -8.791
5558 -13.354 -7.236
5559 -11.013 -5.763
5560 -8.643 -4.298
5561 -6.142 -2.766
5562 -3.416 -1.101
5563 -0.390 0.749
5564 2.997 2.817
5565 6.783 5.118
5566 10.987 7.651
5567 15.612 10.414
5568 20.652 13.400
5569 26.091 16.601
5570 31.907 20.001
5571 38.080 23.584
5572 44.588 27.332
5573 51.406 31.227
5574 58.496 35.246
5575 65.798 39.356
5576 73.235 43.512
5577 80.712 47.669
5578 88.118 51.777
5579 95.331 55.781
5580 102.206 59.613
5581 108.580 63.187
5582 114.265 66.392
5583 119.035 69.092
5584 122.630 71.129
5585 124.755 72.340
5586 125.093 72.562
5587 123.330 71.643
5588 119.175 69.449
5589 112.384 65.871
5590 102.790 60.838
5591 90.336 54.339
5592 75.118 46.447
5593 57.415 37.328
5594 37.703 27.241
5595 16.634 16.524
5596 -5.011 5.567
5597 -26.400 -5.219
5598 -46.718 -15.439
5599 -65.237 -24.743
5600 -81.372 -32.858
5601 -94.721 -39.593
5602 -105.064 -44.851
5603 -112.352 -48.616
5604 -116.682 -50.942
5605 -118.268 -51.937
5606 -117.414 -51.748
5607 -114.480 -50.547
5608 -109.854 -48.524
5609 -103.931 -45.872
5610 -97.086 -42.783
5611 -89.665 -39.439
5612 -81.971 -36.005
5613 -74.261 -32.622
5614 -66.748 -29.399
5615 -59.606 -26.417
5616 -52.976 -23.736
5617 -46.957 -21.398
5618 -41.613 -19.426
5619 -36.968 -17.824
5620 -33.014 -16.576
5621 -29.712 -15.657
5622 -26.991 -15.022
5623 -24.750 -14.608
5624 -22.866 -14.338
5625 -21.211 -14.135
5626 -19.669 -13.933
5627 -18.134 -13.682
5628 -16.510 -13.346
5629 -14.716 -12.892
5630 -12.686 -12.300
5631 -10.373 -11.554
5632 -7.743 -10.641
5633 -4.778 -9.549
5634 -1.474 -8.268
5635 2.154 -6.793
5636 6.074 -5.131
5637 10.245 -3.291
5638 14.619 -1.282
5639 19.157 0.888
5640 23.831 3.220
5641 28.635 5.727
5642 33.581 8.424
5643 38.701 11.331
5644 44.036 14.460
5645 49.630 17.814
5646 55.515 21.386
5647 61.713 25.161
5648 68.227 29.119
5649 75.042 33.236
5650 82.121 37.485
5651 89.403 41.829
5652 96.803 46.220
5653 104.196 50.589
5654 111.412 54.847
5655 118.228 58.870
5656 124.372 62.504
5657 129.525 65.570
5658 133.342 67.881
5659 135.468 69.250
5660 135.544 69.503
5661 133.227 68.476
5662 128.209 66.029
5663 120.239 62.052
5664 109.155 56.474
5665 94.913 49.283
5666 77.634 40.542
5667 57.640 30.411
5668 35.469 19.160
5669 11.859 7.165
5670 -12.317 -5.124
5671 -36.136 -17.233
5672 -58.721 -28.715
5673 -79.311 -39.191
5674 -97.311 -48.375
5675 -112.310 -56.080
5676 -124.088 -62.214
5677 -132.603 -66.762
5678 -137.966 -69.778
5679 -140.405 -71.363
5680 -140.234 -71.662
5681 -137.820 -70.836
5682 -133.560 -69.062
5683 -127.855 -66.520
5684 -121.090 -63.391
5685 -113.623 -59.845
5686 -105.767 -56.037
5687 -97.789 -52.103
5688 -89.902 -48.162
5689 -82.282 -44.318
5690 -75.075 -40.662
5691 -68.399 -37.271
5692 -62.339 -34.200
5693 -56.945 -31.485
5694 -52.225 -29.133
5695 -48.147 -27.127
5696 -44.643 -25.427
5697 -41.623 -23.978
5698 -38.977 -22.716
5699 -36.581 -21.568
5700 -34.304 -20.457
5701 -32.023 -19.310
5702 -29.627 -18.060
5703 -27.022 -16.656
5704 -24.134 -15.066
5705 -20.910 -13.274
5706 -17.330 -11.289
5707 -13.405 -9.134
5708 -9.170 -6.849
5709 -4.676 -4.474
5710 0.021 -2.045
5711 4.866 0.410
5712 9.817 2.873
5713 14.846 5.338
5714 19.936 7.813
5715 25.075 10.306
5716 30.248 12.825
5717 35.445 15.377
5718 40.663 17.975
5719 45.915 20.633
5720 51.226 23.369
5721 56.630 26.199
5722 62.162 29.138
5723 67.857 32.201
5724 73.746 35.396
5725 79.846 38.721
5726 86.144 42.160
5727 92.598 45.679
5728 99.123 49.231
5729 105.597 52.744
5730 111.861 56.122
5731 117.717 59.256
5732 122.937 62.020
5733 127.271 64.285
5734 130.441 65.917
5735 132.143 66.777
5736 132.048 66.709
5737 129.817 65.543
5738 125.117 63.107
5739 117.654 59.242
5740 107.216 53.830
5741 93.723 46.822
5742 77.266 38.264
5743 58.145 28.312
5744 36.878 17.240
5745 14.172 5.427
5746 -9.137 -6.671
5747 -32.165 -18.575
5748 -54.064 -29.830
5749 -74.083 -40.041
5750 -91.620 -48.895
5751 -106.243 -56.170
5752 -117.702 -61.740
5753 -125.920 -65.578
5754 -130.977 -67.748
5755 -133.083 -68.384
5756 -132.546 -67.666
5757 -129.736 -65.801
5758 -125.054 -63.008
5759 -118.906 -59.504
5760 -111.678 -55.490
5761 -103.732 -51.151
5762 -95.390 -46.656
5763 -86.934 -42.144
5764 -78.600 -37.736
5765 -70.577 -33.525
5766 -63.019 -29.583
5767 -56.048 -25.964
5768 -49.743 -22.707
5769 -44.143 -19.832
5770 -39.242 -17.343
5771 -34.998 -15.222
5772 -31.343 -13.433
5773 -28.188 -11.922
5774 -25.434 -10.623
5775 -22.974 -9.461
5776 -20.700 -8.361
5777 -18.510 -7.255
5778 -16.309 -6.084
5779 -14.015 -4.798
5780 -11.554 -3.362
5781 -8.873 -1.758
5782 -5.933 0.018
5783 -2.715 1.957
5784 0.792 4.037
5785 4.582 6.233
5786 8.639 8.518
5787 12.931 10.869
5788 17.424 13.264
5789 22.087 15.691
5790 26.899 18.144
5791 31.851 20.631
5792 36.937 23.162
5793 42.161 25.754
5794 47.539 28.421
5795 53.094 31.176
5796 58.851 34.025
5797 64.830 36.968
5798 71.039 39.995
5799 77.462 43.088
5800 84.049 46.216
5801 90.714 49.333
5802 97.334 52.374
5803 103.757 55.267
5804 109.791 57.931
5805 115.210 60.273
5806 119.744 62.175
5807 123.080 63.493
5808 124.869 64.053
5809 124.749 63.664
5810 122.359 62.131
5811 117.370 59.278
5812 109.514 54.964
5813 98.621 49.103
5814 84.656 41.685
5815 67.760 32.783
5816 48.273 22.568
5817 26.742 11.312
5818 3.893 -0.623
5819 -19.422 -12.808
5820 -42.317 -24.793
5821 -63.955 -36.148
5822 -83.618 -46.495
5823 -100.742 -55.533
5824 -114.937 -63.040
5825 -125.981 -68.886
5826 -133.820 -73.026
5827 -138.545 -75.506
5828 -140.368 -76.442
5829 -139.594 -76.006
5830 -136.585 -74.402
5831 -131.733 -71.848
5832 -125.435 -68.560
5833 -118.071 -64.741
5834 -109.985 -60.576
5835 -101.485 -56.231
5836 -92.850 -51.849
5837 -84.329 -47.552
5838 -76.137 -43.439
5839 -68.448 -39.585
5840 -61.383 -36.041
5841 -55.012 -32.839
5842 -49.358 -29.988
5843 -44.402 -27.482
5844 -40.091 -25.293
5845 -36.350 -23.383
5846 -33.086 -21.701
5847 -30.198 -20.195
5848 -27.584 -18.809
5849 -25.137 -17.487
5850 -22.754 -16.176
5851 -20.334 -14.816
5852 -17.789 -13.351
5853 -15.039 -11.730
5854 -12.010 -9.914
5855 -8.645 -7.878
5856 -4.909 -5.615
5857 -0.792 -3.133
5858 3.696 -0.450
5859 8.531 2.414
5860 13.681 5.442
5861 19.107 8.621
5862 24.771 11.934
5863 30.629 15.365
5864 36.635 18.897
5865 42.745 22.517
5866 48.921 26.213
5867 55.136 29.973
5868 61.371 33.790
5869 67.624 37.653
5870 73.903 41.549
5871 80.221 45.458
5872 86.585 49.356
5873 92.988 53.204
5874 99.407 56.951
5875 105.793 60.534
5876 112.068 63.881
5877 118.123 66.919
5878 123.822 69.575
5879 129.005 71.785
5880 133.485 73.485
5881 137.045 74.616
5882 139.430 75.110
5883 140.354 74.880
5884 139.506 73.823
5885 136.570 71.820
5886 131.245 68.747
5887 123.268 64.487
5888 112.448 58.957
5889 98.695 52.117
5890 82.063 43.994
5891 62.783 34.692
5892 41.297 24.413
5893 18.261 13.459
5894 -5.503 2.211
5895 -29.092 -8.909
5896 -51.624 -19.489
5897 -72.325 -29.164
5898 -90.587 -37.649
5899 -105.989 -44.751
5900 -118.292 -50.371
5901 -127.433 -54.497
5902 -133.504 -57.202
5903 -136.724 -58.621
5904 -137.400 -58.933
5905 -135.891 -58.329
5906 -132.572 -57.001
5907 -127.819 -55.124
5908 -121.982 -52.850
5909 -115.372 -50.305
5910 -108.266 -47.596
5911 -100.907 -44.808
5912 -93.508 -42.011
5913 -86.250 -39.259
5914 -79.277 -36.598
5915 -72.703 -34.066
5916 -66.612 -31.699
5917 -61.064 -29.523
5918 -56.093 -27.560
5919 -51.707 -25.821
5920 -47.889 -24.306
5921 -44.596 -23.001
5922 -41.758 -21.880
5923 -39.280 -20.901
5924 -37.044 -20.015
5925 -34.924 -19.156
5926 -32.789 -18.251
5927 -30.518 -17.228
5928 -28.015 -16.022
5929 -25.209 -14.587
5930 -22.051 -12.895
5931 -18.520 -10.946
5932 -14.612 -8.759
5933 -10.342 -6.361
5934 -5.741 -3.790
5935 -0.859 -1.084
5936 4.236 1.712
5937 9.462 4.555
5938 14.731 7.401
5939 19.969 10.215
5940 25.118 12.965
5941 30.146 15.638
5942 35.045 18.234
5943 39.823 20.763
5944 44.516 23.253
5945 49.177 25.744
5946 53.867 28.280
5947 58.647 30.894
5948 63.566 33.603
5949 68.668 36.407
5950 73.987 39.301
5951 79.556 42.277
5952 85.399 45.335
5953 91.524 48.476
5954 97.921 51.703
5955 104.548 55.006
5956 111.324 58.359
5957 118.117 61.707
5958 124.739 64.968
5959 130.946 68.029
5960 136.445 70.751
5961 140.907 72.975
5962 143.980 74.523
5963 145.302 75.201
5964 144.505 74.813
5965 141.231 73.167
5966 135.156 70.087
5967 126.009 65.425
5968 113.607 59.074
5969 97.899 50.999
5970 79.021 41.263
5971 57.338 30.049
5972 33.454 17.660
5973 8.181 4.510
5974 -17.536 -8.913
5975 -42.718 -22.101
5976 -66.452 -34.580
5977 -87.959 -45.946
5978 -106.638 -55.879
