# s1_sit de 30 s. Gerado por analise.fonte_falsa; não editar à mão.
n ir vermelho
0 66573 64664
1 76399 74203
2 72714 70623
3 74782 72628
4 73467 71360
5 74300 72175
6 73811 71663
7 74109 71980
8 73926 71794
9 74026 71885
10 74000 71879
11 73973 71826
12 73966 71825
13 73987 71838
14 74041 71877
15 73991 71849
16 73971 71825
17 73990 71854
18 74023 71890
19 73989 71853
20 73975 71840
21 73990 71846
22 74020 71879
23 73975 71845
24 73960 71823
25 73978 71832
26 74020 71868
27 73971 71826
28 73939 71818
29 73951 71824
30 73976 71853
31 73929 71806
32 73892 71795
33 73903 71787
34 73925 71836
35 73878 71801
36 73833 71775
37 73847 71764
38 73879 71805
39 73822 71765
40 73793 71732
41 73791 71725
42 73831 71766
43 73773 71733
44 73745 71712
45 73748 71722
46 73773 71750
47 73732 71710
48 73712 71698
49 73724 71701
50 73753 71737
51 73714 71689
52 73699 71683
53 73700 71693
54 73742 71729
55 73692 71701
56 73688 71674
57 73695 71691
58 73724 71716
59 73692 71689
60 73665 71666
61 73683 71681
62 73718 71720
63 73679 71685
64 73668 71674
65 73675 71683
66 73710 71721
67 73681 71684
68 73667 71660
69 73677 71675
70 73714 71718
71 73665 71698
72 73670 71668
73 73689 71683
74 73723 71716
75 73676 71681
76 73668 71672
77 73696 71686
78 73744 71724
79 73688 71685
80 73698 71679
81 73705 71689
82 73729 71732
83 73702 71684
84 73685 71684
85 73697 71701
86 73741 71734
87 73699 71699
88 73690 71684
89 73712 71703
90 73751 71744
91 73714 71700
92 73708 71686
93 73722 71715
94 73747 71734
95 73722 71701
96 73709 71693
97 73712 71713
98 73752 71748
99 73727 71688
100 73710 71685
101 73720 71705
102 73750 71744
103 73718 71709
104 73709 71688
105 73722 71709
106 73747 71741
107 73727 71703
108 73718 71693
109 73723 71703
110 73755 71728
111 73716 71707
112 73712 71694
113 73724 71714
114 73758 71736
115 73715 71703
116 73709 71684
117 73728 71710
118 73758 71749
119 73726 71707
120 73718 71711
121 73747 71707
122 73783 71744
123 73734 71714
124 73708 71693
125 73741 71709
126 73783 71746
127 73738 71706
128 73729 71699
129 73748 71708
130 73783 71751
131 73760 71711
132 73740 71705
133 73742 71718
134 73792 71753
135 73761 71708
136 73745 71706
137 73758 71721
138 73787 71746
139 73752 71706
140 73757 71703
141 73780 71721
142 73791 71757
143 73751 71722
144 73750 71706
145 73762 71728
146 73796 71753
147 73771 71717
148 73761 71710
149 73769 71729
150 73792 71758
151 73763 71724
152 73761 71716
153 73765 71727
154 73806 71749
155 73775 71704
156 73761 71711
157 73779 71726
158 73818 71762
159 73774 71733
160 73763 71725
161 73775 71723
162 73803 71761
163 73768 71721
164 73749 71717
165 73765 71732
166 73812 71761
167 73770 71725
168 73751 71706
169 73772 71715
170 73817 71748
171 73768 71720
172 73739 71710
173 73755 71712
174 73797 71738
175 73769 71723
176 73757 71699
177 73766 71718
178 73810 71744
179 73772 71719
180 73760 71700
181 73765 71732
182 73805 71752
183 73776 71721
184 73758 71706
185 73775 71724
186 73811 71751
187 73777 71721
188 73779 71721
189 73785 71723
190 73830 71752
191 73794 71724
192 73783 71726
193 73795 71738
194 73848 71770
195 73804 71742
196 73780 71717
197 73800 71735
198 73835 71794
199 73806 71733
200 73791 71729
201 73800 71740
202 73844 71766
203 73810 71734
204 73808 71733
205 73819 71741
206 73853 71778
207 73819 71750
208 73805 71728
209 73820 71748
210 73855 71781
211 73826 71744
212 73816 71735
213 73837 71738
214 73865 71775
215 73829 71748
216 73824 71745
217 73840 71746
218 73873 71786
219 73844 71757
220 73817 71753
221 73844 71750
222 73877 71789
223 73842 71763
224 73822 71756
225 73849 71753
226 73884 71792
227 73857 71758
228 73840 71751
229 73855 71762
230 73896 71796
231 73866 71771
232 73861 71758
233 73860 71773
234 73900 71808
235 73878 71773
236 73855 71759
237 73869 71774
238 73909 71807
239 73871 71776
240 73859 71749
241 73866 71770
242 73900 71812
243 73861 71761
244 73846 71749
245 73858 71757
246 73902 71798
247 73867 71773
248 73859 71753
249 73876 71768
250 73915 71811
251 73881 71783
252 73868 71769
253 73877 71783
254 73927 71810
255 73894 71773
256 73870 71768
257 73889 71776
258 73926 71818
259 73878 71784
260 73879 71760
261 73891 71777
262 73936 71816
263 73896 71778
264 73874 71767
265 73896 71780
266 73936 71818
267 73897 71779
268 73881 71773
269 73890 71787
270 73928 71823
271 73912 71793
272 73897 71777
273 73904 71790
274 73934 71820
275 73906 71790
276 73897 71784
277 73897 71798
278 73930 71820
279 73908 71785
280 73897 71778
281 73929 71795
282 73947 71826
283 73913 71789
284 73902 71769
285 73915 71797
286 73940 71835
287 73916 71786
288 73912 71775
289 73925 71801
290 73954 71833
291 73927 71798
292 73920 71787
293 73941 71804
294 73963 71833
295 73932 71798
296 73928 71778
297 73941 71819
298 73969 71853
299 73931 71795
300 73926 71790
301 73932 71804
302 73974 71841
303 73937 71806
304 73923 71798
305 73944 71802
306 73973 71851
307 73936 71812
308 73924 71792
309 73954 71810
310 73987 71843
311 73956 71812
312 73941 71800
313 73943 71815
314 73985 71845
315 73964 71813
316 73951 71803
317 73950 71796
318 73982 71835
319 73948 71822
320 73949 71808
321 73964 71826
322 73987 71855
323 73962 71817
324 73945 71806
325 73962 71821
326 73983 71857
327 73959 71815
328 73948 71816
329 73962 71815
330 74001 71849
331 73970 71825
332 73948 71809
333 73962 71831
334 74004 71852
335 73971 71810
336 73952 71815
337 73973 71818
338 74016 71861
339 73979 71821
340 73966 71813
341 73969 71830
342 74014 71867
343 73966 71828
344 73968 71806
345 73982 71817
346 74038 71859
347 73976 71822
348 73945 71798
349 73961 71809
350 73992 71840
351 73945 71809
352 73916 71794
353 73905 71791
354 73927 71813
355 73892 71788
356 73856 71760
357 73845 71756
358 73868 71793
359 73823 71752
360 73813 71730
361 73789 71745
362 73813 71757
363 73784 71725
364 73755 71709
365 73745 71709
366 73775 71732
367 73744 71701
368 73720 71688
369 73716 71696
370 73745 71729
371 73710 71685
372 73693 71675
373 73682 71680
374 73742 71721
375 73697 71679
376 73692 71667
377 73698 71686
378 73723 71716
379 73688 71683
380 73673 71666
381 73689 71676
382 73713 71714
383 73690 71686
384 73697 71671
385 73690 71669
386 73721 71707
387 73682 71676
388 73663 71655
389 73681 71661
390 73709 71697
391 73680 71678
392 73670 71668
393 73682 71667
394 73714 71709
395 73681 71680
396 73671 71657
397 73681 71689
398 73723 71717
399 73692 71672
400 73688 71665
401 73704 71674
402 73735 71714
403 73709 71680
404 73681 71671
405 73703 71666
406 73736 71714
407 73701 71688
408 73683 71675
409 73720 71686
410 73746 71714
411 73708 71688
412 73710 71680
413 73710 71676
414 73757 71720
415 73726 71695
416 73719 71678
417 73732 71702
418 73766 71730
419 73721 71693
420 73715 71679
421 73729 71694
422 73772 71729
423 73730 71700
424 73709 71713
425 73725 71723
426 73764 71726
427 73726 71687
428 73720 71685
429 73728 71699
430 73774 71734
431 73729 71703
432 73725 71687
433 73743 71696
434 73774 71732
435 73743 71705
436 73727 71685
437 73744 71701
438 73783 71733
439 73739 71699
440 73714 71678
441 73737 71692
442 73789 71747
443 73742 71713
444 73731 71695
445 73748 71704
446 73781 71749
447 73767 71705
448 73742 71695
449 73751 71713
450 73789 71742
451 73768 71705
452 73749 71707
453 73761 71720
454 73797 71745
455 73761 71711
456 73757 71706
457 73770 71719
458 73795 71751
459 73765 71719
460 73758 71704
461 73767 71712
462 73795 71746
463 73762 71706
464 73746 71692
465 73767 71709
466 73792 71742
467 73770 71706
468 73761 71689
469 73758 71713
470 73796 71748
471 73774 71702
472 73767 71695
473 73773 71713
474 73791 71739
475 73770 71713
476 73767 71695
477 73767 71722
478 73800 71747
479 73766 71704
480 73755 71697
481 73764 71718
482 73811 71756
483 73774 71714
484 73760 71699
485 73771 71715
486 73803 71748
487 73779 71728
488 73768 71717
489 73764 71716
490 73804 71752
491 73784 71721
492 73753 71709
493 73762 71711
494 73814 71742
495 73778 71710
496 73763 71709
497 73770 71713
498 73805 71744
499 73779 71705
500 73774 71713
501 73787 71722
502 73808 71749
503 73788 71720
504 73772 71702
505 73789 71722
506 73818 71763
507 73800 71730
508 73780 71715
509 73783 71723
510 73823 71761
511 73800 71721
512 73784 71717
513 73794 71736
514 73826 71758
515 73804 71717
516 73782 71710
517 73802 71733
518 73839 71765
519 73812 71732
520 73784 71719
521 73799 71740
522 73858 71776
523 73810 71738
524 73803 71731
525 73816 71738
526 73854 71784
527 73811 71749
528 73802 71729
529 73815 71746
530 73870 71782
531 73831 71751
532 73811 71737
533 73830 71751
534 73872 71788
535 73843 71753
536 73821 71751
537 73829 71752
538 73873 71786
539 73840 71757
540 73833 71751
541 73845 71771
542 73872 71782
543 73847 71763
544 73840 71757
545 73847 71764
546 73881 71776
547 73857 71760
548 73843 71752
549 73839 71761
550 73882 71793
551 73852 71762
552 73843 71746
553 73851 71766
554 73896 71797
555 73860 71769
556 73842 71754
557 73861 71776
558 73893 71818
559 73859 71774
560 73854 71754
561 73868 71766
562 73897 71815
563 73870 71772
564 73874 71755
565 73857 71775
566 73901 71807
567 73873 71770
568 73863 71762
569 73863 71775
570 73900 71808
571 73870 71775
572 73863 71760
573 73877 71772
574 73903 71803
575 73870 71768
576 73862 71773
577 73883 71767
578 73918 71808
579 73894 71785
580 73881 71769
581 73882 71780
582 73928 71810
583 73885 71784
584 73869 71767
585 73895 71783
586 73935 71819
587 73901 71794
588 73879 71780
589 73897 71786
590 73944 71818
591 73911 71791
592 73894 71782
593 73902 71798
594 73938 71834
595 73909 71797
596 73893 71788
597 73914 71800
598 73948 71837
599 73914 71799
600 73896 71781
601 73900 71799
602 73942 71837
603 73916 71794
604 73916 71791
605 73925 71802
606 73947 71830
607 73908 71796
608 73906 71778
609 73918 71786
610 73951 71823
611 73909 71801
612 73903 71776
613 73920 71799
614 73950 71824
615 73915 71795
616 73911 71782
617 73934 71790
618 73974 71843
619 73930 71807
620 73926 71787
621 73932 71801
622 73975 71847
623 73931 71813
624 73945 71785
625 73958 71796
626 73968 71851
627 73945 71812
628 73932 71794
629 73939 71815
630 73978 71837
631 73953 71813
632 73939 71800
633 73949 71818
634 73981 71851
635 73961 71823
636 73949 71826
637 73948 71825
638 73979 71853
639 73971 71815
640 73959 71800
641 73962 71813
642 74000 71853
643 73962 71824
644 73955 71812
645 73962 71817
646 73992 71850
647 73957 71819
648 73943 71807
649 73968 71818
650 73988 71860
651 73960 71817
652 73948 71803
653 73955 71816
654 73983 71857
655 73943 71808
656 73930 71787
657 73931 71813
658 73969 71836
659 73909 71775
660 73892 71769
661 73899 71789
662 73912 71823
663 73859 71776
664 73851 71753
665 73840 71771
666 73872 71780
667 73808 71754
668 73781 71746
669 73788 71738
670 73809 71758
671 73778 71725
672 73742 71720
673 73750 71696
674 73768 71732
675 73735 71705
676 73711 71697
677 73715 71692
678 73744 71714
679 73707 71691
680 73689 71669
681 73701 71683
682 73714 71712
683 73693 71686
684 73671 71651
685 73687 71670
686 73692 71702
687 73659 71659
688 73653 71656
689 73664 71662
690 73695 71697
691 73666 71671
692 73647 71649
693 73663 71661
694 73688 71685
695 73660 71650
696 73640 71636
697 73657 71664
698 73692 71704
699 73662 71660
700 73649 71649
701 73658 71664
702 73697 71700
703 73664 71669
704 73649 71660
705 73675 71678
706 73713 71707
707 73673 71668
708 73662 71656
709 73676 71675
710 73716 71694
711 73680 71678
712 73672 71658
713 73684 71677
714 73723 71717
715 73682 71680
716 73669 71658
717 73694 71677
718 73727 71715
719 73693 71684
720 73682 71669
721 73693 71687
722 73729 71702
723 73708 71679
724 73686 71671
725 73692 71680
726 73733 71718
727 73705 71678
728 73686 71672
729 73684 71683
730 73732 71708
731 73703 71676
732 73681 71672
733 73698 71684
734 73744 71707
735 73700 71685
736 73690 71670
737 73708 71682
738 73747 71726
739 73706 71689
740 73703 71669
741 73714 71683
742 73747 71732
743 73711 71693
744 73714 71677
745 73723 71694
746 73748 71733
747 73709 71699
748 73704 71676
749 73712 71695
750 73749 71730
751 73720 71697
752 73709 71680
753 73743 71705
754 73766 71735
755 73733 71705
756 73725 71693
757 73738 71684
758 73774 71727
759 73737 71710
760 73706 71693
761 73737 71699
762 73774 71736
763 73741 71706
764 73722 71693
765 73760 71688
766 73792 71729
767 73747 71708
768 73734 71700
769 73753 71706
770 73786 71745
771 73758 71705
772 73738 71694
773 73756 71707
774 73792 71747
775 73755 71703
776 73756 71700
777 73755 71723
778 73793 71752
779 73763 71717
780 73758 71706
781 73779 71718
782 73805 71753
783 73766 71717
784 73753 71732
785 73764 71745
786 73813 71758
787 73770 71723
788 73755 71706
789 73769 71719
790 73814 71755
791 73767 71723
792 73752 71700
793 73771 71718
794 73806 71752
795 73763 71718
796 73753 71706
797 73769 71717
798 73812 71757
799 73763 71736
800 73760 71698
801 73773 71718
802 73806 71759
803 73774 71725
804 73781 71700
805 73791 71711
806 73808 71757
807 73788 71720
808 73760 71711
809 73768 71717
810 73795 71752
811 73770 71722
812 73762 71709
813 73776 71723
814 73815 71765
815 73787 71731
816 73782 71715
817 73770 71727
818 73821 71760
819 73796 71723
820 73779 71714
821 73794 71738
822 73826 71777
823 73790 71726
824 73769 71709
825 73807 71737
826 73843 71773
827 73804 71734
828 73798 71716
829 73810 71738
830 73842 71785
831 73804 71742
832 73798 71727
833 73814 71747
834 73849 71780
835 73823 71747
836 73806 71732
837 73820 71749
838 73853 71787
839 73814 71742
840 73808 71731
841 73828 71749
842 73874 71783
843 73833 71747
844 73812 71736
845 73840 71749
846 73883 71784
847 73837 71765
848 73824 71745
849 73843 71747
850 73887 71793
851 73867 71753
852 73835 71743
853 73851 71756
854 73879 71800
855 73837 71762
856 73839 71756
857 73845 71758
858 73889 71793
859 73862 71775
860 73843 71759
861 73864 71759
862 73882 71795
863 73849 71753
864 73845 71746
865 73867 71766
866 73890 71803
867 73865 71765
868 73857 71750
869 73870 71768
870 73899 71803
871 73861 71766
872 73859 71755
873 73869 71774
874 73895 71794
875 73882 71749
876 73867 71760
877 73876 71777
878 73908 71807
879 73881 71769
880 73859 71768
881 73878 71779
882 73923 71812
883 73886 71783
884 73880 71767
885 73885 71781
886 73919 71810
887 73890 71790
888 73874 71761
889 73882 71778
890 73923 71794
891 73886 71785
892 73865 71771
893 73886 71781
894 73921 71824
895 73894 71786
896 73875 71778
897 73889 71780
898 73945 71818
899 73904 71781
900 73890 71776
901 73904 71807
902 73928 71815
903 73909 71787
904 73895 71764
905 73899 71796
906 73951 71832
907 73907 71794
908 73881 71787
909 73907 71795
910 73950 71820
911 73907 71794
912 73898 71781
913 73918 71802
914 73954 71829
915 73923 71795
916 73906 71798
917 73923 71811
918 73964 71853
919 73928 71803
920 73912 71786
921 73934 71809
922 73973 71844
923 73932 71805
924 73932 71797
925 73945 71803
926 73973 71846
927 73933 71816
928 73929 71791
929 73941 71801
930 73968 71843
931 73941 71816
932 73927 71798
933 73930 71804
934 73957 71846
935 73931 71805
936 73926 71798
937 73935 71810
938 73973 71844
939 73948 71815
940 73935 71801
941 73939 71798
942 73976 71838
943 73951 71816
944 73924 71814
945 73960 71825
946 73994 71860
947 73960 71823
948 73938 71809
949 73960 71808
950 73995 71853
951 73961 71826
952 73950 71809
953 73968 71825
954 74006 71859
955 73974 71830
956 73962 71814
957 73965 71836
958 74005 71860
959 73984 71825
960 73977 71818
961 73980 71831
962 74014 71870
963 73980 71824
964 73977 71833
965 73992 71839
966 74018 71870
967 73988 71831
968 73973 71835
969 73980 71852
970 74020 71872
971 73970 71837
972 73961 71813
973 73983 71827
974 74000 71861
975 73967 71828
976 73960 71811
977 73963 71823
978 74001 71859
979 73954 71809
980 73924 71787
981 73934 71804
982 73961 71841
983 73906 71787
984 73875 71758
985 73889 71782
986 73894 71814
987 73847 71755
988 73810 71755
989 73815 71755
990 73846 71771
991 73791 71734
992 73767 71721
993 73769 71732
994 73789 71751
995 73745 71716
996 73732 71705
997 73725 71710
998 73743 71737
999 73726 71703
1000 73708 71689
1001 73709 71696
1002 73727 71729
1003 73708 71677
1004 73692 71664
1005 73679 71680
1006 73711 71711
1007 73672 71664
1008 73663 71642
1009 73669 71675
1010 73702 71711
1011 73670 71673
1012 73659 71661
1013 73665 71664
1014 73698 71697
1015 73667 71673
1016 73651 71655
1017 73671 71665
1018 73712 71719
1019 73665 71667
1020 73662 71653
1021 73678 71680
1022 73698 71711
1023 73670 71675
1024 73658 71653
1025 73676 71678
1026 73715 71709
1027 73682 71691
1028 73675 71678
1029 73683 71687
1030 73723 71715
1031 73688 71682
1032 73675 71672
1033 73691 71674
1034 73727 71720
1035 73686 71683
1036 73681 71677
1037 73683 71670
1038 73719 71703
1039 73698 71696
1040 73687 71665
1041 73702 71688
1042 73726 71726
1043 73687 71691
1044 73688 71680
1045 73692 71683
1046 73726 71718
1047 73696 71690
1048 73691 71676
1049 73695 71682
1050 73734 71713
1051 73724 71678
1052 73683 71671
1053 73689 71681
1054 73734 71710
1055 73710 71675
1056 73683 71672
1057 73699 71683
1058 73736 71715
1059 73700 71691
1060 73693 71674
1061 73695 71690
1062 73750 71729
1063 73724 71695
1064 73694 71666
1065 73708 71683
1066 73761 71725
1067 73729 71694
1068 73706 71693
1069 73718 71696
1070 73765 71726
1071 73723 71698
1072 73706 71682
1073 73718 71692
1074 73768 71722
1075 73725 71708
1076 73705 71696
1077 73723 71696
1078 73766 71724
1079 73734 71702
1080 73729 71694
1081 73735 71709
1082 73770 71737
1083 73738 71702
1084 73735 71695
1085 73738 71712
1086 73775 71738
1087 73748 71706
1088 73740 71693
1089 73733 71710
1090 73774 71730
1091 73741 71703
1092 73729 71695
1093 73744 71698
1094 73789 71732
1095 73743 71710
1096 73726 71698
1097 73750 71716
1098 73780 71747
1099 73751 71720
1100 73752 71700
1101 73761 71706
1102 73785 71757
1103 73756 71719
1104 73754 71701
1105 73751 71718
1106 73793 71751
1107 73769 71713
1108 73750 71711
1109 73764 71713
1110 73803 71759
1111 73763 71723
1112 73748 71708
1113 73765 71719
1114 73796 71745
1115 73756 71712
1116 73745 71708
1117 73765 71700
1118 73811 71743
1119 73781 71721
1120 73742 71710
1121 73765 71696
1122 73804 71738
1123 73775 71717
1124 73741 71704
1125 73770 71706
1126 73803 71752
1127 73764 71721
1128 73748 71707
1129 73768 71710
1130 73810 71747
1131 73770 71715
1132 73745 71707
1133 73774 71717
1134 73811 71752
1135 73767 71720
1136 73764 71708
1137 73778 71732
1138 73818 71763
1139 73777 71720
1140 73769 71710
1141 73785 71727
1142 73826 71774
1143 73788 71730
1144 73783 71735
1145 73799 71748
1146 73821 71770
1147 73788 71733
1148 73798 71722
1149 73807 71737
1150 73838 71765
1151 73801 71728
1152 73791 71718
1153 73806 71736
1154 73848 71775
1155 73806 71751
1156 73794 71736
1157 73812 71748
1158 73851 71780
1159 73812 71750
1160 73809 71739
1161 73819 71754
1162 73852 71794
1163 73825 71753
1164 73815 71734
1165 73824 71750
1166 73856 71792
1167 73837 71757
1168 73810 71752
1169 73829 71764
1170 73872 71783
1171 73840 71755
1172 73819 71755
1173 73833 71765
1174 73881 71799
1175 73844 71760
1176 73840 71746
1177 73841 71773
1178 73857 71802
1179 73845 71759
1180 73832 71751
1181 73854 71771
1182 73897 71813
1183 73865 71767
1184 73847 71753
1185 73859 71769
1186 73893 71803
1187 73860 71758
1188 73848 71746
1189 73855 71775
1190 73900 71799
1191 73862 71778
1192 73849 71772
1193 73869 71771
1194 73898 71804
1195 73865 71792
1196 73860 71770
1197 73882 71789
1198 73910 71827
1199 73875 71777
1200 73868 71762
1201 73878 71769
1202 73926 71817
1203 73891 71785
1204 73875 71775
1205 73876 71785
1206 73921 71815
1207 73896 71787
1208 73886 71779
1209 73888 71776
1210 73917 71814
1211 73887 71777
1212 73864 71773
1213 73880 71783
1214 73916 71827
1215 73883 71789
1216 73882 71783
1217 73878 71782
1218 73926 71818
1219 73900 71794
1220 73885 71787
1221 73911 71786
1222 73934 71814
1223 73908 71788
1224 73891 71783
1225 73896 71794
1226 73927 71829
1227 73895 71788
1228 73893 71796
1229 73905 71807
1230 73938 71829
1231 73911 71783
1232 73895 71788
1233 73916 71800
1234 73950 71834
1235 73925 71802
1236 73904 71799
1237 73920 71815
1238 73961 71834
1239 73935 71788
1240 73917 71801
1241 73917 71813
1242 73959 71854
1243 73920 71829
1244 73920 71785
1245 73936 71803
1246 73973 71845
1247 73934 71814
1248 73921 71801
1249 73939 71815
1250 73966 71839
1251 73947 71817
1252 73920 71788
1253 73936 71806
1254 73979 71846
1255 73948 71819
1256 73931 71804
1257 73943 71816
1258 73982 71853
1259 73953 71829
1260 73932 71811
1261 73944 71833
1262 73994 71853
1263 73956 71823
1264 73946 71811
1265 73948 71823
1266 73984 71848
1267 73950 71818
1268 73938 71802
1269 73944 71830
1270 74002 71853
1271 73957 71828
1272 73951 71824
1273 73960 71826
1274 74001 71863
1275 73969 71826
1276 73964 71821
1277 73973 71827
1278 74018 71866
1279 73975 71834
1280 73956 71823
1281 73972 71811
1282 74008 71861
1283 73977 71827
1284 73978 71818
1285 73977 71828
1286 74015 71873
1287 73996 71848
1288 73977 71824
1289 73987 71844
1290 74013 71875
1291 73981 71850
1292 73967 71824
1293 73998 71829
1294 74021 71872
1295 73991 71842
1296 73977 71834
1297 73981 71841
1298 74019 71877
1299 74000 71856
1300 73977 71828
1301 74005 71836
1302 74038 71882
1303 74009 71857
1304 73971 71834
1305 73998 71841
1306 74036 71883
1307 74013 71858
1308 73993 71837
1309 73998 71860
1310 74041 71885
1311 74011 71857
1312 73991 71837
1313 74005 71859
1314 74039 71884
1315 73993 71840
1316 73982 71833
1317 73993 71849
1318 74022 71870
1319 73974 71835
1320 73933 71819
1321 73943 71825
1322 73976 71862
1323 73915 71802
1324 73879 71796
1325 73894 71803
1326 73910 71823
1327 73853 71763
1328 73819 71747
1329 73827 71756
1330 73844 71768
1331 73788 71747
1332 73757 71709
1333 73773 71724
1334 73802 71749
1335 73741 71714
1336 73722 71693
1337 73735 71705
1338 73773 71741
1339 73709 71705
1340 73714 71684
1341 73720 71701
1342 73745 71739
1343 73706 71700
1344 73688 71664
1345 73703 71678
1346 73735 71725
1347 73710 71677
1348 73677 71669
1349 73685 71686
1350 73717 71720
1351 73682 71689
1352 73668 71672
1353 73688 71684
1354 73722 71721
1355 73695 71685
1356 73691 71681
1357 73671 71682
1358 73709 71717
1359 73694 71687
1360 73679 71671
1361 73686 71688
1362 73717 71718
1363 73685 71687
1364 73676 71674
1365 73691 71688
1366 73728 71728
1367 73688 71682
1368 73672 71668
1369 73709 71691
1370 73727 71729
1371 73696 71687
1372 73691 71671
1373 73704 71693
1374 73734 71728
1375 73695 71695
1376 73686 71679
1377 73713 71696
1378 73747 71734
1379 73716 71696
1380 73704 71685
1381 73711 71691
1382 73760 71726
1383 73724 71708
1384 73717 71705
1385 73721 71703
1386 73759 71722
1387 73718 71708
1388 73704 71697
1389 73725 71698
1390 73766 71735
1391 73739 71710
1392 73721 71695
1393 73726 71696
1394 73759 71737
1395 73729 71697
1396 73720 71697
1397 73723 71691
1398 73746 71725
1399 73716 71712
1400 73715 71688
1401 73726 71702
1402 73759 71738
1403 73719 71707
1404 73713 71694
1405 73729 71710
1406 73767 71733
1407 73730 71685
1408 73730 71690
1409 73738 71710
1410 73786 71742
1411 73770 71694
1412 73733 71701
1413 73757 71709
1414 73781 71745
1415 73744 71709
1416 73746 71703
1417 73751 71716
1418 73785 71750
1419 73755 71721
1420 73737 71698
1421 73742 71716
1422 73809 71760
1423 73775 71724
1424 73758 71718
1425 73762 71726
1426 73816 71758
1427 73776 71730
1428 73764 71704
1429 73783 71725
1430 73827 71765
1431 73774 71736
1432 73768 71721
1433 73782 71727
1434 73810 71752
1435 73786 71724
1436 73769 71720
1437 73782 71723
1438 73826 71743
1439 73779 71722
1440 73761 71723
1441 73778 71743
1442 73840 71763
1443 73788 71734
1444 73768 71718
1445 73777 71728
1446 73818 71743
1447 73774 71729
1448 73762 71719
1449 73783 71723
1450 73815 71748
1451 73779 71720
1452 73767 71707
1453 73778 71722
1454 73808 71749
1455 73779 71731
1456 73768 71725
1457 73789 71730
1458 73807 71759
1459 73785 71721
1460 73767 71713
1461 73781 71709
1462 73823 71759
1463 73784 71735
1464 73796 71715
1465 73804 71729
1466 73835 71769
1467 73794 71739
1468 73775 71719
1469 73780 71730
1470 73826 71756
1471 73790 71736
1472 73776 71722
1473 73788 71729
1474 73818 71764
1475 73789 71729
1476 73782 71726
1477 73805 71731
1478 73844 71776
1479 73799 71739
1480 73786 71725
1481 73810 71729
1482 73842 71764
1483 73815 71743
1484 73783 71735
1485 73818 71745
1486 73847 71778
1487 73806 71745
1488 73799 71732
1489 73823 71744
1490 73858 71779
1491 73823 71745
1492 73812 71739
1493 73827 71753
1494 73865 71797
1495 73833 71768
1496 73835 71749
1497 73840 71766
1498 73873 71798
1499 73828 71762
1500 73829 71747
1501 73841 71768
1502 73879 71793
1503 73856 71753
1504 73835 71780
1505 73850 71787
1506 73882 71794
1507 73852 71762
1508 73840 71752
1509 73849 71763
1510 73901 71798
1511 73859 71764
1512 73863 71747
1513 73872 71763
1514 73890 71799
1515 73860 71766
1516 73852 71756
1517 73874 71768
1518 73923 71814
1519 73873 71775
1520 73857 71755
1521 73870 71769
1522 73908 71810
1523 73873 71777
1524 73864 71762
1525 73880 71772
1526 73916 71815
1527 73899 71780
1528 73865 71767
1529 73871 71784
1530 73924 71821
1531 73892 71784
1532 73869 71776
1533 73880 71778
1534 73921 71812
1535 73892 71783
1536 73878 71769
1537 73880 71777
1538 73917 71815
1539 73897 71787
1540 73887 71772
1541 73902 71793
1542 73930 71817
1543 73903 71778
1544 73894 71765
1545 73900 71797
1546 73944 71822
1547 73902 71786
1548 73882 71776
1549 73902 71790
1550 73937 71824
1551 73907 71793
1552 73890 71778
1553 73913 71795
1554 73934 71834
1555 73914 71796
1556 73914 71778
1557 73925 71804
1558 73949 71838
1559 73918 71795
1560 73912 71785
1561 73922 71803
1562 73968 71839
1563 73934 71797
1564 73918 71784
1565 73927 71808
1566 73964 71830
1567 73939 71823
1568 73923 71813
1569 73929 71807
1570 73969 71837
1571 73935 71801
1572 73918 71800
1573 73922 71809
1574 73965 71846
1575 73943 71805
1576 73922 71797
1577 73924 71802
1578 73966 71837
1579 73933 71816
1580 73923 71792
1581 73942 71813
1582 73972 71839
1583 73943 71802
1584 73927 71797
1585 73930 71808
1586 73981 71843
1587 73947 71808
1588 73938 71802
1589 73943 71819
1590 73979 71844
1591 73960 71807
1592 73934 71809
1593 73944 71818
1594 73984 71844
1595 73964 71807
1596 73948 71813
1597 73966 71831
1598 73987 71853
1599 73959 71810
1600 73946 71807
1601 73959 71824
1602 74005 71851
1603 73958 71805
1604 73947 71815
1605 73956 71834
1606 74010 71866
1607 73961 71833
1608 73960 71814
1609 73975 71836
1610 74007 71870
1611 73965 71833
1612 73951 71810
1613 73971 71832
1614 74018 71859
1615 73976 71843
1616 73958 71817
1617 73978 71830
1618 74022 71860
1619 73983 71822
1620 73965 71819
1621 73976 71841
1622 74019 71855
1623 73978 71827
1624 73964 71816
1625 73987 71828
1626 74019 71852
1627 73993 71839
1628 73974 71827
1629 73980 71845
1630 74027 71866
1631 73989 71826
1632 73984 71818
1633 74002 71848
1634 74061 71873
1635 74001 71837
1636 73988 71832
1637 74015 71858
1638 74048 71908
1639 74015 71859
1640 74003 71844
1641 74024 71845
1642 74063 71897
1643 74014 71850
1644 74003 71847
1645 74024 71847
1646 74057 71887
1647 74004 71849
1648 73994 71839
1649 74023 71848
1650 74056 71890
1651 74006 71849
1652 73981 71831
1653 73982 71843
1654 74012 71878
1655 73983 71830
1656 73952 71822
1657 73960 71812
1658 73992 71855
1659 73943 71816
1660 73897 71789
1661 73909 71786
1662 73927 71824
1663 73882 71787
1664 73824 71766
1665 73849 71757
1666 73883 71795
1667 73831 71745
1668 73792 71723
1669 73798 71729
1670 73830 71772
1671 73781 71723
1672 73758 71714
1673 73760 71729
1674 73794 71765
1675 73742 71723
1676 73726 71698
1677 73729 71718
1678 73763 71748
1679 73711 71695
1680 73705 71684
1681 73713 71700
1682 73739 71724
1683 73701 71687
1684 73699 71695
1685 73710 71704
1686 73733 71721
1687 73693 71685
1688 73697 71669
1689 73708 71684
1690 73726 71726
1691 73693 71693
1692 73679 71663
1693 73693 71678
1694 73725 71713
1695 73677 71686
1696 73680 71665
1697 73695 71680
1698 73729 71718
1699 73696 71690
1700 73685 71661
1701 73705 71682
1702 73730 71729
1703 73694 71704
1704 73701 71655
1705 73721 71671
1706 73753 71735
1707 73728 71695
1708 73714 71686
1709 73732 71692
1710 73764 71734
1711 73721 71695
1712 73707 71688
1713 73725 71706
1714 73765 71748
1715 73744 71703
1716 73742 71690
1717 73738 71713
1718 73762 71741
1719 73740 71709
1720 73734 71702
1721 73741 71720
1722 73778 71760
1723 73743 71711
1724 73741 71693
1725 73744 71724
1726 73781 71739
1727 73744 71700
1728 73721 71690
1729 73742 71709
1730 73773 71739
1731 73747 71712
1732 73736 71689
1733 73754 71698
1734 73763 71735
1735 73729 71695
1736 73736 71690
1737 73752 71712
1738 73783 71750
1739 73757 71699
1740 73749 71691
1741 73752 71712
1742 73776 71745
1743 73747 71712
1744 73744 71699
1745 73762 71714
1746 73811 71751
1747 73766 71737
1748 73747 71725
1749 73770 71717
1750 73815 71765
1751 73765 71728
1752 73751 71715
1753 73775 71722
1754 73821 71763
1755 73793 71728
1756 73774 71716
1757 73777 71725
1758 73825 71751
1759 73791 71736
1760 73782 71722
1761 73790 71716
1762 73819 71759
1763 73798 71733
1764 73768 71721
1765 73789 71739
1766 73818 71767
1767 73772 71732
1768 73786 71714
1769 73790 71740
1770 73831 71769
1771 73811 71732
1772 73786 71728
1773 73786 71735
1774 73822 71769
1775 73804 71729
1776 73791 71726
1777 73797 71739
1778 73829 71773
1779 73797 71735
1780 73778 71733
1781 73785 71740
1782 73830 71766
1783 73803 71733
1784 73786 71727
1785 73804 71741
1786 73827 71771
1787 73786 71749
1788 73789 71720
1789 73804 71745
1790 73849 71773
1791 73801 71745
1792 73784 71729
1793 73794 71733
1794 73852 71761
1795 73804 71733
1796 73790 71719
1797 73789 71729
1798 73830 71761
1799 73806 71738
1800 73793 71727
1801 73794 71740
1802 73827 71770
1803 73795 71739
1804 73788 71728
1805 73795 71735
1806 73841 71766
1807 73798 71732
1808 73794 71725
1809 73812 71743
1810 73861 71769
1811 73816 71749
1812 73798 71737
1813 73802 71747
1814 73844 71766
1815 73813 71736
1816 73799 71741
1817 73818 71751
1818 73847 71782
1819 73812 71750
1820 73807 71731
1821 73826 71735
1822 73860 71789
1823 73827 71752
1824 73836 71747
1825 73844 71759
1826 73881 71795
1827 73836 71760
1828 73832 71753
1829 73847 71756
1830 73884 71795
1831 73854 71778
1832 73832 71758
1833 73851 71752
1834 73895 71796
1835 73865 71760
1836 73837 71758
1837 73861 71759
1838 73892 71803
1839 73866 71776
1840 73853 71759
1841 73865 71771
1842 73904 71814
1843 73865 71781
1844 73841 71759
1845 73878 71761
1846 73913 71805
1847 73883 71786
1848 73855 71770
1849 73872 71768
1850 73909 71811
1851 73882 71785
1852 73870 71764
1853 73861 71777
1854 73912 71810
1855 73877 71782
1856 73868 71775
1857 73879 71788
1858 73911 71819
1859 73884 71782
1860 73884 71764
1861 73892 71784
1862 73917 71824
1863 73882 71786
1864 73887 71784
1865 73904 71796
1866 73933 71826
1867 73897 71791
1868 73891 71789
1869 73902 71800
1870 73930 71822
1871 73895 71795
1872 73893 71770
1873 73901 71788
1874 73940 71832
1875 73912 71796
1876 73893 71781
1877 73907 71792
1878 73935 71832
1879 73899 71804
1880 73896 71782
1881 73915 71801
1882 73958 71841
1883 73918 71807
1884 73912 71769
1885 73929 71786
1886 73965 71841
1887 73936 71802
1888 73919 71795
1889 73934 71802
1890 73968 71855
1891 73935 71821
1892 73929 71806
1893 73928 71818
1894 73967 71845
1895 73936 71806
1896 73916 71798
1897 73924 71811
1898 73957 71847
1899 73937 71817
1900 73918 71803
1901 73941 71813
1902 73974 71846
1903 73952 71810
1904 73945 71801
1905 73959 71825
1906 73991 71847
1907 73951 71823
1908 73942 71813
1909 73956 71826
1910 73983 71855
1911 73959 71823
1912 73949 71807
1913 73958 71832
1914 73991 71863
1915 73955 71829
1916 73941 71821
1917 73958 71826
1918 73986 71862
1919 73957 71821
1920 73954 71813
1921 73958 71836
1922 74005 71857
1923 73972 71827
1924 73961 71810
1925 73972 71834
1926 74013 71870
1927 73980 71851
1928 73958 71841
1929 73981 71833
1930 74017 71868
1931 73981 71845
1932 73972 71831
1933 73973 71839
1934 74021 71872
1935 73983 71836
1936 73971 71847
1937 73976 71835
1938 74017 71860
1939 74001 71828
1940 73976 71829
1941 73987 71845
1942 74023 71883
1943 73994 71850
1944 73981 71835
1945 73990 71831
1946 74020 71870
1947 73987 71837
1948 73979 71825
1949 73995 71846
1950 74037 71875
1951 74023 71831
1952 73983 71831
1953 73996 71851
1954 74040 71874
1955 74007 71833
1956 73992 71841
1957 74002 71849
1958 74045 71888
1959 74023 71856
1960 73987 71848
1961 74006 71857
1962 74050 71888
1963 74018 71847
1964 74004 71844
1965 74012 71851
1966 74045 71891
1967 74003 71859
1968 74000 71850
1969 74022 71856
1970 74057 71894
1971 74021 71857
1972 74012 71844
1973 74023 71859
1974 74054 71888
1975 74000 71852
1976 73991 71843
1977 73999 71845
1978 74028 71873
1979 73995 71841
1980 73970 71833
1981 73963 71836
1982 73995 71859
1983 73952 71827
1984 73924 71800
1985 73918 71801
1986 73947 71831
1987 73896 71792
1988 73851 71775
1989 73846 71770
1990 73876 71787
1991 73834 71767
1992 73800 71743
1993 73792 71739
1994 73822 71768
1995 73781 71727
1996 73767 71705
1997 73755 71717
1998 73789 71755
1999 73743 71715
2000 73721 71693
2001 73735 71700
2002 73777 71739
2003 73730 71712
2004 73711 71690
2005 73720 71706
2006 73756 71735
2007 73707 71693
2008 73688 71676
2009 73711 71694
2010 73734 71728
2011 73696 71683
2012 73687 71670
2013 73697 71686
2014 73732 71719
2015 73693 71689
2016 73668 71670
2017 73689 71669
2018 73723 71714
2019 73684 71683
2020 73677 71676
2021 73689 71681
2022 73728 71714
2023 73689 71692
2024 73655 71682
2025 73702 71685
2026 73739 71724
2027 73697 71689
2028 73681 71679
2029 73715 71677
2030 73735 71717
2031 73702 71689
2032 73697 71678
2033 73714 71701
2034 73753 71734
2035 73709 71705
2036 73702 71694
2037 73723 71703
2038 73753 71734
2039 73704 71695
2040 73704 71684
2041 73728 71700
2042 73750 71735
2043 73719 71697
2044 73722 71701
2045 73725 71721
2046 73756 71736
2047 73725 71700
2048 73724 71690
2049 73734 71703
2050 73760 71746
2051 73723 71712
2052 73719 71693
2053 73739 71711
2054 73766 71750
2055 73733 71713
2056 73714 71697
2057 73731 71710
2058 73782 71741
2059 73720 71707
2060 73728 71695
2061 73733 71712
2062 73768 71742
2063 73734 71707
2064 73728 71673
2065 73748 71695
2066 73771 71754
2067 73752 71704
2068 73754 71719
2069 73757 71724
2070 73781 71746
2071 73745 71718
2072 73736 71709
2073 73753 71721
2074 73793 71753
2075 73756 71715
2076 73748 71707
2077 73764 71721
2078 73793 71754
2079 73768 71719
2080 73760 71710
2081 73777 71731
2082 73799 71759
2083 73771 71729
2084 73763 71722
2085 73775 71730
2086 73813 71756
2087 73763 71732
2088 73749 71716
2089 73775 71727
2090 73813 71755
2091 73782 71729
2092 73775 71722
2093 73782 71729
2094 73817 71781
2095 73779 71733
2096 73766 71711
2097 73788 71735
2098 73812 71769
2099 73788 71723
2100 73776 71708
2101 73790 71723
2102 73810 71761
2103 73783 71725
2104 73769 71708
2105 73787 71737
2106 73823 71769
2107 73791 71749
2108 73788 71738
2109 73783 71746
2110 73831 71770
2111 73783 71740
2112 73776 71734
2113 73802 71731
2114 73829 71769
2115 73796 71742
2116 73778 71727
2117 73790 71736
2118 73834 71761
2119 73813 71737
2120 73792 71733
2121 73799 71741
2122 73824 71772
2123 73792 71734
2124 73788 71728
2125 73798 71733
2126 73830 71776
2127 73800 71750
2128 73780 71721
2129 73790 71742
2130 73843 71762
2131 73826 71737
2132 73785 71719
2133 73812 71745
2134 73844 71780
2135 73819 71746
2136 73797 71720
2137 73818 71751
2138 73844 71778
2139 73818 71733
2140 73790 71727
2141 73810 71741
2142 73851 71778
2143 73814 71746
2144 73803 71736
2145 73814 71744
2146 73859 71783
2147 73824 71761
2148 73813 71740
2149 73827 71761
2150 73864 71791
2151 73832 71759
2152 73823 71750
2153 73839 71772
2154 73882 71792
2155 73838 71766
2156 73824 71750
2157 73842 71761
2158 73892 71809
2159 73851 71776
2160 73841 71757
2161 73862 71774
2162 73894 71821
2163 73862 71767
2164 73837 71761
2165 73850 71770
2166 73902 71792
2167 73850 71771
2168 73847 71766
2169 73864 71774
2170 73920 71802
2171 73867 71788
2172 73852 71765
2173 73869 71770
2174 73918 71804
2175 73873 71779
2176 73861 71766
2177 73872 71776
2178 73930 71801
2179 73871 71770
2180 73848 71758
2181 73878 71770
2182 73907 71817
2183 73882 71780
2184 73880 71769
2185 73884 71783
2186 73915 71825
2187 73884 71788
2188 73877 71776
2189 73910 71791
2190 73932 71829
2191 73897 71800
2192 73887 71782
2193 73894 71798
2194 73941 71829
2195 73908 71792
2196 73890 71784
2197 73903 71799
2198 73939 71831
2199 73903 71798
2200 73890 71779
2201 73909 71795
2202 73942 71833
2203 73906 71801
2204 73881 71782
2205 73914 71788
2206 73942 71822
2207 73917 71800
2208 73897 71802
2209 73922 71788
2210 73957 71830
2211 73912 71799
2212 73895 71793
2213 73913 71785
2214 73949 71825
2215 73919 71805
2216 73905 71789
2217 73915 71803
2218 73953 71837
2219 73931 71797
2220 73920 71793
2221 73917 71818
2222 73960 71845
2223 73925 71813
2224 73920 71818
2225 73935 71826
2226 73967 71837
2227 73930 71802
2228 73921 71794
2229 73933 71808
2230 73974 71844
2231 73930 71813
2232 73923 71794
2233 73940 71805
2234 73975 71853
2235 73941 71825
2236 73930 71798
2237 73937 71825
2238 73977 71850
2239 73934 71809
2240 73933 71801
2241 73948 71811
2242 73983 71856
2243 73960 71825
2244 73940 71787
2245 73955 71807
2246 73995 71874
2247 73973 71828
2248 73946 71820
2249 73963 71824
2250 74006 71856
2251 73967 71834
2252 73959 71816
2253 73970 71828
2254 74004 71859
2255 73973 71823
2256 73947 71823
2257 73962 71828
2258 73998 71863
2259 73974 71843
2260 73967 71827
2261 73970 71838
2262 74016 71866
2263 73976 71834
2264 73963 71824
2265 73969 71838
2266 74003 71872
2267 73975 71832
2268 73963 71822
2269 73986 71840
2270 74007 71878
2271 73980 71835
2272 73979 71814
2273 73989 71841
2274 74015 71871
2275 73988 71832
2276 73970 71824
2277 73990 71839
2278 74028 71881
2279 73987 71839
2280 73977 71826
2281 74003 71847
2282 74019 71877
2283 73999 71852
2284 73996 71837
2285 73999 71844
2286 74034 71879
2287 73995 71857
2288 73991 71850
2289 73999 71850
2290 74055 71880
2291 74009 71860
2292 73994 71852
2293 74023 71858
2294 74047 71889
2295 74019 71856
2296 73997 71834
2297 74003 71849
2298 74046 71885
2299 74019 71844
2300 73997 71850
2301 74016 71846
2302 74041 71886
2303 74006 71850
2304 73997 71843
2305 74011 71858
2306 74053 71889
2307 74012 71848
2308 74004 71833
2309 74004 71853
2310 74052 71879
2311 74035 71844
2312 73987 71825
2313 73983 71835
2314 74001 71854
2315 73961 71833
2316 73948 71803
2317 73946 71819
2318 73953 71844
2319 73920 71794
2320 73888 71779
2321 73881 71787
2322 73901 71812
2323 73867 71773
2324 73835 71756
2325 73826 71753
2326 73841 71783
2327 73797 71743
2328 73782 71727
2329 73771 71733
2330 73795 71748
2331 73752 71712
2332 73741 71700
2333 73746 71706
2334 73767 71749
2335 73736 71718
2336 73707 71695
2337 73715 71699
2338 73756 71735
2339 73715 71707
2340 73707 71685
2341 73708 71700
2342 73735 71729
2343 73703 71697
2344 73689 71679
2345 73695 71704
2346 73731 71739
2347 73696 71694
2348 73694 71673
2349 73689 71684
2350 73727 71736
2351 73693 71702
2352 73684 71678
2353 73690 71689
2354 73726 71712
2355 73700 71692
2356 73678 71680
2357 73697 71686
2358 73742 71723
2359 73703 71687
2360 73685 71684
2361 73702 71697
2362 73723 71734
2363 73703 71693
2364 73704 71680
2365 73716 71700
2366 73761 71742
2367 73711 71698
2368 73690 71685
2369 73733 71699
2370 73759 71727
2371 73717 71697
2372 73710 71697
2373 73715 71698
2374 73761 71738
2375 73734 71703
2376 73712 71684
2377 73721 71703
2378 73754 71736
2379 73713 71701
2380 73703 71696
2381 73717 71709
2382 73756 71742
2383 73731 71707
2384 73705 71689
2385 73712 71693
2386 73756 71735
2387 73728 71701
2388 73704 71697
2389 73738 71699
2390 73771 71739
2391 73743 71715
2392 73711 71699
2393 73721 71700
2394 73764 71728
2395 73725 71710
2396 73715 71695
2397 73733 71713
2398 73768 71741
2399 73746 71707
2400 73734 71704
2401 73750 71720
2402 73781 71752
2403 73743 71723
2404 73749 71709
2405 73758 71727
2406 73801 71757
2407 73748 71725
2408 73752 71710
2409 73759 71727
2410 73790 71759
2411 73762 71725
2412 73733 71716
2413 73754 71734
2414 73803 71769
2415 73767 71730
2416 73756 71720
2417 73771 71732
2418 73809 71762
2419 73768 71730
2420 73756 71715
2421 73773 71720
2422 73809 71766
2423 73766 71732
2424 73768 71700
2425 73782 71717
2426 73801 71765
2427 73777 71740
2428 73776 71717
2429 73789 71732
2430 73822 71771
2431 73784 71738
2432 73780 71724
2433 73798 71737
2434 73821 71776
2435 73798 71741
2436 73789 71738
2437 73802 71748
2438 73835 71773
2439 73789 71743
2440 73781 71740
2441 73800 71755
2442 73827 71780
2443 73796 71740
2444 73798 71738
2445 73796 71748
2446 73826 71772
2447 73776 71742
2448 73754 71729
2449 73792 71754
2450 73836 71781
2451 73798 71743
2452 73786 71721
2453 73793 71731
2454 73828 71775
2455 73790 71734
2456 73779 71728
2457 73798 71748
2458 73813 71782
2459 73793 71747
2460 73786 71732
2461 73802 71743
2462 73826 71778
2463 73785 71735
2464 73784 71723
2465 73791 71741
2466 73821 71771
2467 73794 71751
2468 73792 71745
2469 73810 71750
2470 73838 71776
2471 73798 71759
2472 73784 71745
2473 73805 71761
2474 73849 71788
2475 73801 71756
2476 73791 71746
2477 73809 71759
2478 73843 71793
2479 73828 71755
2480 73800 71745
2481 73820 71755
2482 73854 71790
2483 73811 71754
2484 73811 71755
2485 73825 71761
2486 73858 71785
2487 73823 71744
2488 73820 71731
2489 73831 71764
2490 73876 71805
2491 73860 71772
2492 73822 71752
2493 73846 71773
2494 73866 71798
2495 73835 71759
2496 73834 71753
2497 73848 71771
2498 73877 71804
2499 73859 71761
2500 73833 71759
2501 73848 71761
2502 73888 71805
2503 73864 71767
2504 73840 71767
2505 73863 71775
2506 73894 71810
2507 73851 71776
2508 73844 71757
2509 73872 71774
2510 73897 71817
2511 73847 71793
2512 73851 71771
2513 73870 71783
2514 73907 71816
2515 73858 71790
2516 73852 71774
2517 73875 71787
2518 73916 71830
2519 73886 71795
2520 73873 71786
2521 73881 71797
2522 73915 71836
2523 73887 71799
2524 73877 71782
2525 73882 71806
2526 73927 71827
2527 73886 71800
2528 73861 71784
2529 73883 71798
2530 73920 71832
2531 73889 71818
2532 73881 71791
2533 73880 71797
2534 73914 71827
2535 73889 71797
2536 73883 71789
2537 73884 71790
2538 73922 71824
2539 73878 71795
2540 73889 71788
2541 73897 71793
2542 73944 71837
2543 73902 71801
2544 73899 71793
2545 73912 71802
2546 73935 71845
2547 73905 71806
2548 73893 71794
2549 73912 71803
2550 73943 71848
2551 73908 71804
2552 73900 71788
2553 73912 71821
2554 73965 71856
2555 73922 71812
2556 73901 71793
2557 73917 71809
2558 73944 71844
2559 73918 71817
2560 73903 71807
2561 73906 71818
2562 73954 71851
2563 73926 71821
2564 73906 71806
2565 73922 71809
2566 73963 71854
2567 73930 71827
2568 73922 71809
2569 73934 71814
2570 73965 71852
2571 73942 71818
2572 73916 71809
2573 73938 71820
2574 73973 71856
2575 73943 71830
2576 73928 71813
2577 73953 71818
2578 73977 71846
2579 73928 71825
2580 73931 71812
2581 73929 71829
2582 73969 71857
2583 73923 71815
2584 73917 71806
2585 73935 71820
2586 73971 71857
2587 73940 71830
2588 73935 71807
2589 73951 71819
2590 73989 71870
2591 73945 71830
2592 73943 71814
2593 73954 71828
2594 73982 71880
2595 73952 71828
2596 73930 71811
2597 73950 71832
2598 73992 71857
2599 73952 71830
2600 73938 71822
2601 73950 71831
2602 73995 71859
2603 73955 71834
2604 73945 71814
2605 73965 71828
2606 73998 71876
2607 73955 71835
2608 73953 71821
2609 73967 71830
2610 74000 71872
2611 73975 71839
2612 73962 71827
2613 73973 71841
2614 74004 71872
2615 73978 71838
2616 73952 71834
2617 73975 71848
2618 74016 71883
2619 73970 71841
2620 73967 71834
2621 73980 71846
2622 74018 71878
2623 73978 71842
2624 73976 71829
2625 73996 71855
2626 74024 71882
2627 73984 71848
2628 73967 71839
2629 73988 71850
2630 74021 71891
2631 73988 71850
2632 73975 71831
2633 73986 71861
2634 74031 71893
2635 73998 71850
2636 73984 71839
2637 74000 71850
2638 74033 71884
2639 74002 71855
2640 73987 71841
2641 74002 71856
2642 74030 71893
2643 74000 71848
2644 73988 71833
2645 73987 71856
2646 74010 71878
2647 73967 71842
2648 73963 71835
2649 73958 71835
2650 73985 71871
2651 73934 71826
2652 73906 71808
2653 73916 71809
2654 73921 71827
2655 73867 71792
2656 73858 71779
2657 73854 71777
2658 73860 71802
2659 73821 71760
2660 73794 71749
2661 73789 71744
2662 73819 71770
2663 73790 71736
2664 73759 71728
2665 73766 71720
2666 73776 71752
2667 73730 71722
2668 73713 71698
2669 73721 71720
2670 73757 71737
2671 73727 71693
2672 73706 71690
2673 73697 71705
2674 73729 71732
2675 73696 71691
2676 73687 71684
2677 73698 71698
2678 73724 71730
2679 73699 71690
2680 73676 71692
2681 73680 71697
2682 73725 71726
2683 73695 71700
2684 73673 71685
2685 73689 71694
2686 73720 71727
2687 73689 71696
2688 73669 71681
2689 73684 71692
2690 73711 71725
2691 73662 71705
2692 73671 71678
2693 73691 71691
2694 73736 71727
2695 73694 71701
2696 73682 71691
2697 73681 71692
2698 73727 71729
2699 73685 71697
2700 73673 71684
2701 73702 71697
2702 73754 71723
2703 73699 71690
2704 73675 71691
2705 73701 71701
2706 73738 71728
2707 73711 71693
2708 73692 71688
2709 73705 71706
2710 73741 71728
2711 73710 71718
2712 73711 71695
2713 73710 71706
2714 73773 71736
2715 73726 71701
2716 73706 71697
2717 73703 71710
2718 73762 71734
2719 73721 71708
2720 73708 71703
2721 73712 71706
2722 73760 71736
2723 73724 71709
2724 73710 71693
2725 73734 71711
2726 73763 71752
2727 73726 71703
2728 73709 71696
2729 73728 71708
2730 73759 71749
2731 73728 71708
2732 73714 71700
2733 73729 71716
2734 73776 71753
2735 73741 71719
2736 73708 71700
2737 73734 71715
2738 73750 71736
2739 73723 71709
2740 73710 71708
2741 73722 71722
2742 73765 71759
2743 73732 71715
2744 73710 71692
2745 73742 71715
2746 73768 71750
2747 73739 71716
2748 73743 71708
2749 73756 71726
2750 73790 71759
2751 73767 71730
2752 73729 71712
2753 73762 71713
2754 73780 71757
2755 73754 71726
2756 73746 71715
2757 73759 71726
2758 73797 71761
2759 73757 71731
2760 73758 71719
2761 73760 71731
2762 73795 71767
2763 73763 71727
2764 73758 71718
2765 73758 71743
2766 73797 71768
2767 73764 71733
2768 73763 71719
2769 73769 71742
2770 73797 71777
2771 73774 71732
2772 73765 71720
2773 73773 71724
2774 73809 71774
2775 73759 71742
2776 73763 71721
2777 73782 71727
2778 73798 71758
2779 73760 71737
2780 73754 71720
2781 73769 71737
2782 73814 71765
2783 73765 71731
2784 73767 71714
2785 73785 71730
2786 73812 71775
2787 73772 71739
2788 73755 71712
2789 73771 71725
2790 73806 71775
2791 73756 71727
2792 73765 71708
2793 73772 71725
2794 73801 71770
2795 73780 71739
2796 73756 71722
2797 73784 71734
2798 73829 71781
2799 73773 71735
2800 73764 71730
2801 73777 71736
2802 73809 71761
2803 73788 71742
2804 73780 71730
2805 73782 71750
2806 73828 71782
2807 73778 71746
2808 73761 71733
2809 73784 71750
2810 73825 71777
2811 73795 71748
2812 73779 71735
2813 73799 71749
2814 73830 71785
2815 73789 71746
2816 73784 71736
2817 73805 71746
2818 73825 71785
2819 73793 71756
2820 73790 71737
2821 73801 71746
2822 73825 71784
2823 73805 71756
2824 73796 71743
2825 73808 71763
2826 73836 71792
2827 73812 71763
2828 73807 71755
2829 73819 71759
2830 73859 71797
2831 73819 71779
2832 73807 71770
2833 73827 71765
2834 73852 71797
2835 73830 71764
2836 73819 71756
2837 73826 71768
2838 73864 71800
2839 73835 71772
2840 73820 71765
2841 73827 71766
2842 73874 71807
2843 73840 71777
2844 73818 71766
2845 73827 71777
2846 73866 71813
2847 73835 71784
2848 73830 71754
2849 73836 71772
2850 73886 71806
2851 73874 71770
2852 73833 71769
2853 73829 71782
2854 73874 71811
2855 73855 71768
2856 73832 71770
2857 73849 71781
2858 73884 71812
2859 73864 71774
2860 73844 71768
2861 73852 71780
2862 73880 71816
2863 73856 71776
2864 73844 71767
2865 73858 71773
2866 73896 71816
2867 73858 71786
2868 73841 71772
2869 73860 71786
2870 73890 71825
2871 73843 71795
2872 73859 71776
2873 73870 71784
2874 73903 71819
2875 73870 71786
2876 73858 71767
2877 73864 71784
2878 73889 71822
2879 73865 71797
2880 73864 71779
2881 73882 71799
2882 73902 71832
2883 73883 71797
2884 73869 71785
2885 73881 71802
2886 73921 71821
2887 73880 71799
2888 73862 71785
2889 73881 71791
2890 73925 71817
2891 73889 71809
2892 73875 71795
2893 73885 71809
2894 73913 71840
2895 73894 71807
2896 73876 71798
2897 73880 71819
2898 73932 71836
2899 73894 71816
2900 73879 71782
2901 73895 71786
2902 73921 71845
2903 73888 71805
2904 73882 71790
2905 73898 71801
2906 73932 71854
2907 73898 71801
2908 73880 71780
2909 73905 71791
2910 73933 71837
2911 73902 71803
2912 73893 71794
2913 73897 71814
2914 73963 71848
2915 73922 71808
2916 73888 71796
2917 73902 71801
2918 73942 71849
2919 73911 71809
2920 73898 71799
2921 73915 71824
2922 73951 71850
2923 73921 71814
2924 73892 71802
2925 73927 71810
2926 73956 71844
2927 73921 71816
2928 73908 71804
2929 73925 71814
2930 73961 71847
2931 73926 71811
2932 73901 71806
2933 73914 71811
2934 73958 71852
2935 73929 71820
2936 73912 71811
2937 73924 71818
2938 73965 71847
2939 73932 71817
2940 73922 71813
2941 73943 71833
2942 73977 71862
2943 73934 71828
2944 73928 71813
2945 73944 71822
2946 73964 71854
2947 73934 71819
2948 73915 71816
2949 73933 71827
2950 73972 71857
2951 73944 71824
2952 73939 71811
2953 73947 71828
2954 73977 71881
2955 73952 71836
2956 73951 71815
2957 73960 71828
2958 73986 71870
2959 73947 71836
2960 73945 71815
2961 73958 71828
2962 73990 71868
2963 73967 71839
2964 73948 71815
2965 73972 71836
2966 74000 71877
2967 73970 71844
2968 73953 71813
2969 73964 71834
2970 74011 71880
2971 73973 71844
2972 73958 71838
2973 73970 71840
2974 74007 71873
2975 73967 71844
2976 73959 71832
2977 73973 71845
2978 73993 71869
2979 73952 71831
2980 73943 71821
2981 73923 71823
2982 73949 71854
2983 73894 71803
2984 73878 71795
2985 73892 71817
2986 73902 71829
2987 73837 71786
2988 73817 71764
2989 73829 71772
2990 73843 71795
2991 73798 71763
2992 73783 71749
2993 73780 71747
2994 73789 71777
2995 73745 71721
2996 73729 71705
2997 73737 71716
2998 73755 71749
2999 73712 71704
3000 73696 71694
3001 73698 71711
3002 73732 71746
3003 73680 71702
3004 73670 71679
3005 73687 71695
3006 73709 71723
3007 73668 71703
3008 73659 71693
3009 73669 71690
3010 73704 71718
3011 73665 71691
3012 73647 71681
3013 73654 71681
3014 73697 71715
3015 73666 71685
3016 73646 71669
3017 73661 71682
3018 73700 71715
3019 73667 71686
3020 73656 71671
3021 73653 71690
3022 73698 71716
3023 73661 71692
3024 73648 71669
3025 73665 71686
3026 73694 71722
3027 73670 71677
3028 73666 71670
3029 73663 71682
3030 73701 71719
3031 73680 71686
3032 73667 71676
3033 73672 71696
3034 73706 71728
3035 73682 71685
3036 73664 71685
3037 73681 71695
3038 73720 71721
3039 73685 71685
3040 73669 71680
3041 73691 71697
3042 73738 71733
3043 73704 71698
3044 73699 71687
3045 73701 71698
3046 73732 71736
3047 73699 71703
3048 73687 71687
3049 73708 71708
3050 73749 71731
3051 73692 71710
3052 73681 71705
3053 73708 71707
3054 73735 71740
3055 73713 71708
3056 73705 71697
3057 73706 71708
3058 73751 71739
3059 73704 71701
3060 73697 71689
3061 73709 71709
3062 73736 71737
3063 73699 71705
3064 73681 71688
3065 73706 71700
3066 73746 71737
3067 73707 71699
3068 73700 71691
3069 73717 71708
3070 73761 71736
3071 73725 71728
3072 73714 71705
3073 73721 71706
3074 73757 71736
3075 73729 71698
3076 73718 71696
3077 73747 71716
3078 73761 71749
3079 73734 71713
3080 73716 71695
3081 73739 71700
3082 73776 71757
3083 73743 71714
3084 73734 71703
3085 73756 71718
3086 73786 71758
3087 73742 71716
3088 73745 71708
3089 73753 71728
3090 73787 71761
3091 73749 71719
3092 73722 71711
3093 73749 71720
3094 73790 71758
3095 73755 71722
3096 73735 71708
3097 73746 71722
3098 73784 71750
3099 73755 71715
3100 73735 71705
3101 73743 71734
3102 73775 71758
3103 73744 71721
3104 73719 71726
3105 73749 71703
3106 73777 71742
3107 73737 71725
3108 73732 71707
3109 73760 71709
3110 73790 71763
3111 73753 71725
3112 73728 71709
3113 73749 71724
3114 73782 71756
3115 73741 71728
3116 73752 71717
3117 73740 71732
3118 73776 71763
3119 73747 71724
3120 73747 71717
3121 73748 71719
3122 73785 71755
3123 73748 71725
3124 73749 71724
3125 73762 71736
3126 73788 71761
3127 73750 71732
3128 73742 71712
3129 73753 71721
3130 73787 71755
3131 73751 71726
3132 73750 71717
3133 73761 71726
3134 73791 71761
3135 73754 71731
3136 73752 71709
3137 73758 71721
3138 73798 71757
3139 73751 71726
3140 73749 71709
3141 73764 71725
3142 73792 71757
3143 73747 71734
3144 73746 71693
3145 73760 71710
3146 73794 71768
3147 73773 71737
3148 73748 71714
3149 73762 71721
3150 73793 71760
3151 73787 71731
3152 73772 71728
3153 73781 71738
3154 73803 71779
3155 73774 71745
3156 73771 71730
3157 73791 71747
3158 73827 71773
3159 73784 71743
3160 73781 71741
3161 73784 71748
3162 73827 71783
3163 73806 71738
3164 73788 71719
3165 73796 71760
3166 73834 71786
3167 73778 71753
3168 73767 71740
3169 73813 71754
3170 73828 71787
3171 73804 71757
3172 73795 71741
3173 73813 71764
3174 73842 71801
3175 73797 71748
3176 73786 71741
3177 73813 71761
3178 73845 71804
3179 73811 71755
3180 73806 71741
3181 73816 71764
3182 73848 71799
3183 73815 71766
3184 73797 71747
3185 73823 71758
3186 73851 71792
3187 73819 71767
3188 73811 71758
3189 73822 71764
3190 73864 71800
3191 73826 71774
3192 73815 71768
3193 73824 71759
3194 73870 71793
3195 73845 71768
3196 73820 71761
3197 73834 71767
3198 73871 71804
3199 73845 71777
3200 73821 71759
3201 73829 71782
3202 73876 71814
3203 73843 71767
3204 73828 71759
3205 73830 71773
3206 73873 71800
3207 73835 71756
3208 73826 71754
3209 73835 71775
3210 73889 71811
3211 73879 71773
3212 73838 71768
3213 73845 71774
3214 73881 71809
3215 73862 71770
3216 73835 71765
3217 73850 71784
3218 73894 71821
3219 73861 71778
3220 73847 71772
3221 73848 71786
3222 73891 71819
3223 73859 71775
3224 73848 71768
3225 73861 71785
3226 73903 71828
3227 73871 71803
3228 73844 71774
3229 73860 71783
3230 73897 71820
3231 73865 71791
3232 73853 71765
3233 73861 71781
3234 73900 71813
3235 73877 71800
3236 73860 71779
3237 73857 71787
3238 73919 71828
3239 73874 71787
3240 73861 71778
3241 73880 71796
3242 73913 71819
3243 73883 71796
3244 73866 71781
3245 73871 71794
3246 73904 71830
3247 73879 71793
3248 73868 71786
3249 73884 71798
3250 73925 71840
3251 73899 71814
3252 73881 71786
3253 73884 71791
3254 73934 71823
3255 73888 71795
3256 73870 71792
3257 73887 71801
3258 73908 71840
3259 73883 71797
3260 73874 71798
3261 73895 71795
3262 73924 71838
3263 73892 71806
3264 73884 71789
3265 73911 71801
3266 73927 71845
3267 73894 71811
3268 73886 71793
3269 73894 71801
3270 73932 71841
3271 73890 71809
3272 73887 71795
3273 73915 71812
3274 73956 71841
3275 73915 71813
3276 73890 71804
3277 73913 71816
3278 73946 71842
3279 73913 71813
3280 73897 71805
3281 73907 71820
3282 73953 71848
3283 73925 71817
3284 73894 71809
3285 73912 71816
3286 73953 71850
3287 73924 71817
3288 73902 71813
3289 73916 71808
3290 73958 71847
3291 73929 71819
3292 73904 71806
3293 73915 71809
3294 73946 71842
3295 73895 71814
3296 73876 71791
3297 73891 71806
3298 73928 71831
3299 73872 71790
3300 73843 71775
3301 73855 71788
3302 73870 71813
3303 73811 71762
3304 73785 71761
3305 73798 71774
3306 73815 71781
3307 73756 71736
3308 73735 71720
3309 73747 71737
3310 73773 71764
3311 73714 71712
3312 73707 71690
3313 73711 71708
3314 73737 71744
3315 73697 71705
3316 73678 71681
3317 73689 71692
3318 73720 71728
3319 73672 71687
3320 73651 71672
3321 73669 71688
3322 73685 71736
3323 73656 71678
3324 73637 71652
3325 73645 71681
3326 73675 71723
3327 73665 71680
3328 73638 71663
3329 73650 71673
3330 73684 71716
3331 73643 71677
3332 73635 71671
3333 73643 71677
3334 73672 71717
3335 73652 71692
3336 73644 71675
3337 73644 71674
3338 73675 71717
3339 73644 71679
3340 73629 71664
3341 73644 71675
3342 73680 71711
3343 73651 71678
3344 73643 71661
3345 73658 71682
3346 73688 71703
3347 73641 71671
3348 73634 71662
3349 73666 71686
3350 73690 71719
3351 73658 71677
3352 73645 71663
3353 73660 71673
3354 73693 71714
3355 73664 71679
3356 73659 71671
3357 73667 71683
3358 73700 71719
3359 73673 71679
3360 73669 71668
3361 73681 71691
3362 73706 71721
3363 73665 71689
3364 73651 71680
3365 73675 71689
3366 73719 71723
3367 73684 71715
3368 73668 71701
3369 73682 71691
3370 73721 71730
3371 73688 71699
3372 73674 71687
3373 73682 71689
3374 73725 71738
3375 73696 71717
3376 73680 71696
3377 73686 71692
3378 73718 71729
3379 73696 71696
3380 73673 71686
3381 73692 71705
3382 73729 71725
3383 73693 71692
3384 73671 71703
3385 73694 71704
3386 73728 71728
3387 73699 71691
3388 73685 71687
3389 73698 71698
3390 73739 71724
3391 73716 71691
3392 73689 71690
3393 73711 71712
3394 73738 71738
3395 73713 71693
3396 73696 71703
3397 73706 71717
3398 73750 71747
3399 73716 71703
3400 73701 71698
3401 73719 71713
3402 73750 71745
3403 73720 71715
3404 73706 71703
3405 73715 71714
3406 73756 71747
3407 73715 71721
3408 73704 71707
3409 73732 71724
3410 73762 71756
3411 73721 71727
3412 73715 71705
3413 73727 71722
3414 73770 71758
3415 73726 71717
3416 73714 71718
3417 73728 71723
3418 73760 71744
3419 73729 71719
3420 73718 71709
3421 73728 71727
3422 73758 71728
3423 73721 71716
3424 73714 71708
3425 73725 71715
3426 73763 71743
3427 73728 71724
3428 73711 71705
3429 73716 71709
3430 73759 71742
3431 73719 71724
3432 73718 71705
3433 73732 71719
3434 73767 71747
3435 73733 71722
3436 73719 71713
3437 73729 71719
3438 73768 71750
3439 73735 71716
3440 73737 71713
3441 73740 71725
3442 73766 71762
3443 73736 71727
3444 73724 71705
3445 73736 71702
3446 73765 71754
3447 73728 71727
3448 73727 71707
3449 73749 71723
3450 73774 71762
3451 73728 71723
3452 73723 71707
3453 73734 71726
3454 73788 71762
3455 73757 71728
3456 73720 71714
3457 73751 71719
3458 73775 71758
3459 73749 71728
3460 73729 71714
3461 73745 71735
3462 73786 71764
3463 73742 71730
3464 73710 71715
3465 73755 71708
3466 73787 71753
3467 73756 71736
3468 73736 71723
3469 73769 71739
3470 73788 71771
3471 73758 71735
3472 73761 71732
3473 73777 71742
3474 73815 71780
3475 73774 71746
3476 73758 71728
3477 73783 71764
3478 73807 71785
3479 73771 71751
3480 73775 71735
3481 73789 71752
3482 73820 71793
3483 73780 71754
3484 73783 71750
3485 73794 71762
3486 73829 71798
3487 73793 71755
3488 73782 71737
3489 73790 71752
3490 73835 71787
3491 73800 71757
3492 73784 71737
3493 73809 71752
3494 73831 71789
3495 73798 71756
3496 73781 71739
3497 73793 71753
3498 73841 71789
3499 73808 71762
3500 73785 71740
3501 73801 71755
3502 73843 71796
3503 73791 71762
3504 73785 71725
3505 73804 71737
3506 73836 71801
3507 73814 71750
3508 73798 71749
3509 73806 71762
3510 73844 71799
3511 73817 71761
3512 73798 71760
3513 73813 71772
3514 73852 71801
3515 73816 71762
3516 73809 71747
3517 73822 71768
3518 73860 71806
3519 73830 71781
3520 73815 71770
3521 73821 71776
3522 73863 71813
3523 73835 71778
3524 73821 71761
3525 73821 71774
3526 73864 71812
3527 73815 71775
3528 73801 71761
3529 73841 71780
3530 73852 71809
3531 73835 71775
3532 73822 71764
3533 73839 71782
3534 73864 71816
3535 73834 71772
3536 73828 71760
3537 73840 71771
3538 73871 71820
3539 73845 71773
3540 73836 71757
3541 73832 71785
3542 73876 71815
3543 73831 71783
3544 73827 71771
3545 73842 71779
3546 73883 71805
3547 73845 71796
3548 73830 71780
3549 73839 71785
3550 73889 71807
3551 73854 71794
3552 73834 71792
3553 73847 71785
3554 73889 71821
3555 73842 71779
3556 73849 71787
3557 73852 71784
3558 73892 71823
3559 73861 71784
3560 73843 71783
3561 73850 71795
3562 73894 71825
3563 73869 71787
3564 73852 71783
3565 73861 71787
3566 73891 71819
3567 73858 71781
3568 73854 71769
3569 73859 71799
3570 73911 71823
3571 73899 71783
3572 73849 71779
3573 73856 71792
3574 73901 71829
3575 73872 71801
3576 73863 71780
3577 73873 71795
3578 73909 71830
3579 73888 71788
3580 73860 71789
3581 73871 71794
3582 73921 71834
3583 73877 71804
3584 73870 71791
3585 73870 71808
3586 73915 71843
3587 73879 71806
3588 73877 71787
3589 73895 71808
3590 73917 71835
3591 73886 71813
3592 73877 71796
3593 73894 71810
3594 73940 71844
3595 73897 71812
3596 73875 71801
3597 73889 71800
3598 73912 71837
3599 73893 71808
3600 73887 71806
3601 73895 71819
3602 73940 71832
3603 73909 71817
3604 73891 71815
3605 73916 71808
3606 73938 71844
3607 73907 71810
3608 73892 71814
3609 73903 71817
3610 73942 71835
3611 73902 71823
3612 73906 71815
3613 73912 71819
3614 73938 71841
3615 73890 71808
3616 73888 71804
3617 73902 71821
3618 73928 71832
3619 73889 71807
3620 73873 71790
3621 73877 71798
3622 73902 71848
3623 73861 71797
3624 73823 71774
3625 73839 71783
3626 73858 71813
3627 73795 71772
3628 73752 71742
3629 73769 71733
3630 73795 71774
3631 73746 71736
3632 73715 71711
3633 73713 71720
3634 73759 71753
3635 73717 71719
3636 73675 71692
3637 73683 71702
3638 73721 71743
3639 73679 71695
3640 73630 71673
3641 73648 71690
3642 73677 71723
3643 73647 71681
3644 73616 71670
3645 73645 71668
3646 73662 71706
3647 73630 71673
3648 73614 71663
3649 73616 71665
3650 73651 71701
3651 73618 71658
3652 73606 71645
3653 73603 71663
3654 73643 71697
3655 73613 71667
3656 73599 71667
3657 73608 71666
3658 73647 71706
3659 73613 71665
3660 73598 71642
3661 73606 71660
3662 73639 71697
3663 73616 71664
3664 73589 71656
3665 73605 71667
3666 73638 71695
3667 73598 71659
3668 73603 71648
3669 73613 71664
3670 73648 71701
3671 73612 71677
3672 73598 71649
3673 73611 71661
3674 73648 71704
3675 73619 71672
3676 73614 71663
3677 73625 71673
3678 73657 71697
3679 73625 71673
3680 73634 71658
3681 73643 71674
3682 73658 71705
3683 73622 71672
3684 73612 71644
3685 73630 71659
3686 73671 71710
3687 73652 71679
3688 73625 71663
3689 73633 71677
3690 73675 71714
3691 73644 71674
3692 73621 71675
3693 73634 71679
3694 73667 71708
3695 73641 71672
3696 73640 71675
3697 73644 71686
3698 73677 71711
3699 73641 71683
3700 73623 71667
3701 73651 71687
3702 73680 71708
3703 73638 71670
3704 73623 71664
3705 73635 71683
3706 73677 71716
3707 73626 71680
3708 73611 71661
3709 73644 71680
3710 73674 71722
3711 73640 71673
3712 73624 71662
3713 73643 71672
3714 73684 71714
3715 73663 71694
3716 73650 71677
3717 73662 71685
3718 73692 71721
3719 73666 71692
3720 73663 71685
3721 73666 71685
3722 73702 71724
3723 73650 71690
3724 73641 71677
3725 73672 71693
3726 73709 71725
3727 73678 71720
3728 73663 71713
3729 73675 71689
3730 73710 71733
3731 73687 71704
3732 73674 71694
3733 73679 71703
3734 73728 71739
3735 73697 71700
3736 73670 71701
3737 73676 71701
3738 73723 71731
3739 73690 71705
3740 73684 71699
3741 73689 71703
3742 73722 71735
3743 73700 71701
3744 73676 71680
3745 73683 71698
3746 73728 71726
3747 73686 71698
3748 73682 71673
3749 73681 71700
3750 73730 71738
3751 73708 71706
3752 73681 71690
3753 73692 71699
3754 73721 71730
3755 73695 71704
3756 73682 71689
3757 73698 71698
3758 73727 71732
3759 73699 71692
3760 73681 71689
3761 73684 71712
3762 73732 71744
3763 73702 71704
3764 73690 71691
3765 73707 71707
3766 73732 71737
3767 73692 71701
3768 73676 71690
3769 73710 71712
3770 73746 71761
3771 73691 71706
3772 73687 71683
3773 73703 71709
3774 73734 71741
3775 73709 71716
3776 73690 71696
3777 73707 71709
3778 73738 71738
3779 73717 71715
3780 73694 71706
3781 73700 71712
3782 73741 71751
3783 73712 71713
3784 73698 71710
3785 73702 71716
3786 73741 71742
3787 73718 71714
3788 73699 71697
3789 73708 71717
3790 73747 71740
3791 73719 71725
3792 73710 71708
3793 73717 71721
3794 73763 71755
3795 73722 71728
3796 73711 71706
3797 73727 71714
3798 73766 71754
3799 73733 71725
3800 73730 71718
3801 73749 71730
3802 73770 71764
3803 73742 71735
3804 73736 71727
3805 73753 71732
3806 73785 71779
3807 73750 71741
3808 73736 71720
3809 73755 71737
3810 73787 71780
3811 73747 71736
3812 73736 71726
3813 73753 71738
3814 73799 71777
3815 73755 71755
3816 73738 71718
3817 73763 71742
3818 73798 71769
3819 73760 71734
3820 73739 71730
3821 73765 71750
3822 73796 71787
3823 73761 71747
3824 73745 71735
3825 73741 71741
3826 73788 71777
3827 73767 71743
3828 73754 71737
3829 73768 71727
3830 73804 71781
3831 73766 71742
3832 73748 71727
3833 73773 71738
3834 73796 71777
3835 73775 71755
3836 73774 71738
3837 73775 71753
3838 73817 71782
3839 73783 71750
3840 73777 71746
3841 73779 71750
3842 73821 71786
3843 73785 71752
3844 73791 71752
3845 73806 71766
3846 73822 71790
3847 73789 71756
3848 73787 71747
3849 73790 71759
3850 73825 71798
3851 73787 71758
3852 73780 71736
3853 73801 71747
3854 73827 71796
3855 73798 71762
3856 73799 71743
3857 73810 71749
3858 73835 71792
3859 73790 71770
3860 73789 71739
3861 73799 71758
3862 73842 71796
3863 73798 71762
3864 73788 71728
3865 73804 71748
3866 73833 71791
3867 73806 71759
3868 73773 71760
3869 73789 71762
3870 73840 71786
3871 73811 71768
3872 73789 71743
3873 73807 71753
3874 73833 71806
3875 73817 71763
3876 73805 71762
3877 73825 71762
3878 73859 71792
3879 73813 71773
3880 73814 71757
3881 73822 71775
3882 73860 71802
3883 73818 71773
3884 73806 71761
3885 73830 71779
3886 73875 71812
3887 73826 71780
3888 73806 71759
3889 73837 71776
3890 73860 71804
3891 73828 71768
3892 73819 71761
3893 73843 71776
3894 73861 71819
3895 73835 71764
3896 73826 71747
3897 73830 71780
3898 73870 71812
3899 73842 71782
3900 73836 71771
3901 73837 71786
3902 73870 71829
3903 73836 71781
3904 73831 71770
3905 73844 71787
3906 73891 71813
3907 73843 71793
3908 73832 71783
3909 73847 71777
3910 73892 71818
3911 73847 71796
3912 73827 71780
3913 73846 71802
3914 73879 71824
3915 73858 71780
3916 73832 71778
3917 73845 71790
3918 73890 71837
3919 73863 71786
3920 73845 71782
3921 73855 71794
3922 73898 71822
3923 73862 71786
3924 73852 71783
3925 73868 71787
3926 73909 71833
3927 73873 71789
3928 73874 71770
3929 73871 71798
3930 73913 71835
3931 73896 71807
3932 73872 71792
3933 73869 71798
3934 73910 71843
3935 73880 71792
3936 73862 71789
3937 73872 71804
3938 73910 71839
3939 73881 71796
3940 73874 71796
3941 73893 71803
3942 73922 71836
3943 73891 71794
3944 73883 71798
3945 73891 71803
3946 73927 71827
3947 73885 71799
3948 73877 71791
3949 73892 71814
3950 73935 71840
3951 73888 71807
3952 73885 71793
3953 73894 71808
3954 73929 71839
3955 73899 71823
3956 73897 71802
3957 73892 71814
3958 73937 71842
3959 73893 71816
3960 73888 71796
3961 73894 71807
3962 73922 71841
3963 73897 71812
3964 73872 71803
3965 73862 71802
3966 73906 71826
3967 73859 71788
3968 73823 71769
3969 73819 71773
3970 73856 71799
3971 73812 71778
3972 73778 71754
3973 73766 71746
3974 73797 71769
3975 73757 71742
3976 73726 71720
3977 73721 71727
3978 73752 71763
3979 73704 71725
3980 73679 71697
3981 73680 71699
3982 73703 71731
3983 73666 71696
3984 73647 71673
3985 73647 71683
3986 73669 71715
3987 73645 71683
3988 73611 71666
3989 73630 71674
3990 73656 71702
3991 73668 71699
3992 73570 71615
3993 73760 71816
3994 73466 71518
3995 73970 72008
3996 73113 71186
3997 74419 72465
3998 72354 70455
3999 76029 74040
